NaN,0,0,0
0,0,0,0
0,0,0,0
0,0,0,0
0,0,0,0
0,0,0,0
0,0,0,0
0,0,0,0
0,0,0,0
0,0,0,0
0,0,0,0
0,0,0,0
0,0,0,0
0,0,0,0
0,0,0,0
0,0,0,0
0,0,0,0
0,0,0,0
131,320,128,516
129,408,128,420
128,416,128,416
128,416,129,416
129,420,129,424
130,420,129,416
131,408,129,412
131,420,130,416
131,420,131,420
131,416,132,412
131,412,134,420
130,420,133,412
128,416,132,420
127,416,129,420
127,428,127,412
127,404,125,416
127,420,123,424
126,420,122,416
126,412,121,412
126,416,123,416
126,420,124,420
126,420,125,420
126,408,125,412
126,420,125,416
126,420,123,420
125,416,120,420
124,412,115,408
122,420,112,416
121,420,112,424
121,416,113,420
122,412,114,408
123,420,115,416
124,416,117,424
126,420,118,416
128,412,119,412
129,416,119,416
131,420,121,416
131,412,125,420
131,420,126,420
130,416,124,412
130,420,121,420
131,420,119,412
131,408,119,420
131,420,121,416
131,420,124,420
131,420,131,412
131,408,137,420
132,420,141,412
131,416,143,424
130,420,144,416
130,420,143,412
129,408,142,416
129,420,141,424
128,420,141,416
128,408,141,412
128,420,141,416
128,420,140,420
128,416,139,420
129,412,138,408
129,420,137,416
129,420,137,424
129,416,137,420
130,412,137,408
130,420,137,416
129,416,136,424
129,420,136,420
130,412,136,408
130,416,136,416
130,420,135,416
129,416,134,420
128,416,132,420
127,416,131,412
127,420,131,420
127,420,131,420
127,408,131,408
126,420,131,416
127,420,131,424
127,416,131,420
128,412,131,408
128,420,131,416
128,416,131,424
128,420,130,416
129,412,129,412
129,416,128,416
129,420,128,424
129,420,128,416
129,408,128,412
128,420,128,416
127,420,128,420
126,416,128,420
126,412,127,408
126,420,127,416
126,420,127,424
126,412,127,412
127,420,127,420
127,416,127,412
128,416,126,424
128,420,125,420
130,412,124,408
131,416,123,416
131,428,122,416
131,408,122,420
132,416,123,420
131,420,124,412
131,416,125,420
131,420,126,420
130,408,127,412
129,420,128,412
127,420,128,424
125,416,127,420
124,412,124,408
125,420,121,416
126,416,120,424
129,420,120,416
131,412,121,412
131,416,124,416
132,420,127,424
132,420,129,416
132,408,130,412
133,420,130,416
135,420,129,420
134,416,128,420
131,420,126,408
131,412,127,416
131,420,127,424
132,412,126,412
133,420,126,420
132,416,127,412
132,416,127,424
131,420,127,420
130,412,127,408
129,416,128,416
128,420,128,420
127,420,128,420
126,408,127,412
125,420,127,416
124,420,125,420
124,420,124,420
124,408,125,408
124,420,126,416
124,420,126,424
123,416,125,420
123,412,124,408
123,420,124,416
124,416,123,424
126,420,124,420
127,412,124,408
126,416,123,416
124,420,123,424
122,420,121,408
120,412,119,420
119,416,118,416
117,416,116,416
116,420,116,420
116,416,117,412
117,416,120,416
119,420,123,424
121,412,126,412
121,420,127,420
121,416,127,412
122,416,127,424
125,420,128,416
128,412,129,412
128,416,128,416
127,420,128,420
126,420,127,420
124,408,127,412
124,420,128,416
124,420,128,420
123,420,127,420
124,408,126,408
125,420,126,416
127,420,125,424
127,416,124,420
124,412,124,408
121,420,125,416
120,416,127,424
119,420,127,416
119,412,126,412
119,416,126,416
121,420,126,420
123,420,127,412
128,412,128,420
131,420,127,416
134,412,126,416
137,420,126,420
142,424,126,412
145,408,127,416
147,420,127,424
145,416,125,420
141,412,123,408
137,420,121,416
135,416,120,424
135,420,121,416
135,412,124,412
135,416,125,416
136,420,126,420
137,420,125,420
137,408,124,412
136,420,123,416
135,420,125,420
135,420,127,420
135,408,131,408
136,420,135,416
137,420,138,424
137,416,137,420
136,412,135,408
135,420,131,416
134,416,126,416
131,416,122,420
128,416,118,420
125,416,114,412
124,420,113,424
124,420,112,408
127,412,112,420
127,416,110,416
126,420,107,420
124,420,107,420
126,408,110,408
129,420,116,416
133,420,121,424
134,416,123,420
132,412,126,408
131,420,129,416
131,416,130,424
131,420,132,416
134,412,134,412
135,416,134,416
134,420,137,420
134,420,145,420
134,408,151,412
135,420,153,416
137,420,152,420
137,416,151,420
137,420,150,408
137,412,148,416
136,420,147,424
134,416,144,420
132,412,138,408
131,420,134,416
131,416,131,416
131,416,130,420
132,416,129,420
131,416,126,412
131,420,124,424
131,420,123,416
131,408,122,412
132,420,121,416
132,420,121,420
132,420,120,420
132,408,119,408
132,420,118,416
131,420,117,424
131,416,119,420
131,412,121,408
131,420,121,416
130,416,121,424
129,420,122,416
130,412,126,412
131,416,130,416
131,420,133,420
131,420,133,420
131,408,129,412
129,420,127,416
129,420,128,420
128,412,131,412
128,420,132,420
128,416,134,412
128,420,134,424
129,416,134,420
129,412,133,408
129,420,132,416
127,424,130,416
125,408,128,420
124,416,127,420
125,420,126,412
126,416,126,420
127,420,126,420
127,408,127,412
127,420,127,416
126,420,128,420
127,420,128,420
128,408,128,412
129,420,128,412
130,420,129,424
130,416,129,420
131,412,130,408
131,420,131,416
130,416,132,424
130,420,131,416
129,412,129,412
129,416,129,416
129,420,130,420
131,420,131,420
132,412,133,416
132,416,133,412
132,420,129,420
131,412,125,412
130,420,123,420
129,416,122,412
127,420,121,424
126,416,121,420
125,412,123,408
125,420,124,416
125,416,126,424
126,420,127,416
128,420,127,412
129,408,126,416
129,420,123,420
129,420,122,420
129,408,123,412
129,420,124,416
128,420,127,420
128,420,131,420
127,408,137,412
127,420,140,412
127,420,138,424
127,416,135,420
128,412,134,408
129,420,131,416
130,416,130,424
131,420,130,412
131,412,130,416
130,420,130,416
129,412,130,420
129,420,130,416
128,420,130,416
126,412,130,416
126,420,126,428
126,412,122,404
127,420,118,420
128,416,115,412
128,420,112,424
127,416,111,420
128,412,112,408
128,420,113,416
128,416,113,424
128,420,112,416
128,412,112,412
127,416,112,416
125,420,113,424
124,420,114,416
122,408,116,412
122,420,117,416
122,420,116,420
123,420,113,420
124,408,109,408
124,420,106,416
124,420,105,424
124,416,107,420
123,412,108,408
124,416,108,416
125,420,108,424
126,420,105,412
125,412,104,416
124,420,106,416
124,412,108,420
125,420,107,416
126,424,108,416
126,408,111,416
126,420,111,420
126,420,113,420
127,408,120,408
127,420,127,416
126,420,133,424
123,416,135,420
121,412,135,408
120,420,134,416
120,416,131,424
119,420,128,416
119,412,129,412
119,416,127,416
120,420,124,424
121,420,121,416
120,408,118,412
119,420,118,416
118,420,120,420
118,420,121,420
120,408,121,408
125,420,119,416
129,420,116,420
130,412,116,416
131,420,115,420
131,412,114,412
133,420,116,424
135,420,118,412
137,412,122,416
137,420,125,416
137,416,125,420
137,420,125,420
135,408,127,412
135,420,134,416
136,420,141,420
137,420,144,420
138,408,146,412
138,420,148,412
138,420,151,424
137,416,155,420
137,412,155,408
137,420,153,416
137,416,152,424
137,420,146,416
134,412,138,412
134,416,131,416
133,420,128,424
134,420,129,416
134,408,130,412
134,420,131,416
135,420,135,420
136,420,139,420
136,408,141,412
135,420,142,412
135,420,143,420
135,412,141,416
135,420,138,420
134,412,137,412
132,420,135,424
132,420,133,416
132,420,131,412
133,408,131,416
133,420,134,424
134,420,140,416
132,408,145,412
132,420,150,416
134,420,152,420
135,420,152,420
134,408,150,408
134,420,148,416
134,420,145,424
133,416,142,420
132,412,140,408
131,420,139,416
131,416,138,424
129,420,136,416
128,412,134,412
127,416,132,416
127,420,131,424
126,412,129,412
126,420,129,420
126,420,130,412
128,416,131,420
130,420,131,420
131,408,132,408
132,420,132,416
132,424,132,420
132,408,132,416
132,420,131,420
133,416,131,412
133,416,131,424
133,420,131,416
132,412,131,412
130,416,130,416
129,420,129,420
129,420,129,420
129,408,129,412
129,420,128,416
129,420,128,420
130,420,127,420
131,416,127,408
130,412,126,416
129,420,126,424
129,416,125,420
128,412,124,408
127,420,124,416
127,416,124,424
127,420,124,416
126,420,125,412
127,408,126,416
128,420,126,420
129,412,126,416
130,420,126,420
131,420,126,412
131,416,124,420
131,420,124,420
131,408,123,412
131,420,122,412
131,416,121,424
131,420,121,420
131,412,120,408
130,420,119,416
129,416,118,424
128,420,117,416
128,420,118,412
128,408,120,416
128,420,122,424
127,420,123,416
127,408,125,412
127,420,127,416
126,420,128,420
125,420,129,420
124,408,128,408
124,420,128,416
124,420,130,424
125,416,131,412
125,412,133,420
127,420,137,412
129,412,140,420
129,420,137,416
129,420,134,416
129,412,131,416
129,420,129,428
130,412,129,408
130,420,127,420
130,420,126,412
129,416,125,420
129,420,126,420
129,408,127,408
128,420,128,416
128,416,127,424
128,420,126,420
127,412,125,408
126,420,124,416
126,416,125,424
127,420,127,420
128,412,128,408
127,416,127,416
127,420,125,424
126,420,124,416
125,408,123,412
124,420,124,416
124,420,123,420
125,420,122,420
125,408,122,412
126,416,122,412
128,424,123,424
129,416,123,412
127,412,124,420
126,420,123,412
127,412,123,420
127,420,123,416
128,424,125,416
129,408,126,416
131,420,125,424
131,420,122,416
130,408,120,412
128,420,119,416
126,420,116,420
123,420,113,420
120,408,110,408
118,420,107,416
116,420,103,424
116,416,102,420
119,412,101,408
123,420,105,416
128,416,111,424
132,420,117,416
136,412,123,412
137,416,129,416
137,420,133,424
135,420,134,416
132,408,131,412
130,420,129,416
129,420,127,416
128,412,127,420
129,420,125,416
127,412,121,412
126,424,119,424
125,416,119,412
126,412,122,420
125,420,121,412
125,416,119,424
125,420,120,420
126,412,124,408
126,416,129,416
125,420,134,424
126,420,142,416
130,408,147,412
132,420,148,416
132,420,148,420
131,420,147,420
131,408,146,412
130,420,147,412
130,420,145,424
130,416,142,420
129,412,137,408
128,420,135,416
126,416,134,424
124,420,134,416
123,412,133,412
123,416,132,416
124,420,129,424
125,420,130,416
127,408,133,412
128,420,136,416
130,420,138,416
130,412,137,420
130,420,135,424
130,412,132,404
130,424,128,424
130,416,126,420
129,412,124,408
127,420,123,416
125,416,121,424
123,420,121,416
122,412,123,412
122,416,125,416
123,420,125,424
124,420,125,408
124,412,125,420
126,416,125,416
127,420,124,420
127,420,126,420
128,408,129,408
129,420,134,416
130,416,136,424
129,420,137,420
127,412,136,408
124,420,134,416
122,416,132,424
122,416,132,412
124,416,132,420
125,420,132,412
126,416,132,420
128,420,134,420
127,408,134,412
127,420,132,416
127,428,130,416
128,404,129,420
128,420,127,416
128,416,124,412
127,420,120,424
126,416,117,420
125,412,115,408
124,420,114,416
123,416,113,424
123,420,112,416
123,412,111,412
124,416,111,416
124,420,113,424
125,420,114,416
126,408,112,412
126,420,110,416
125,420,109,420
123,420,110,420
123,408,111,408
122,420,114,416
122,416,119,420
122,416,121,420
122,420,122,412
124,412,122,416
126,420,125,424
128,416,132,412
131,416,144,420
133,420,152,412
133,416,147,424
132,420,141,416
132,408,135,412
132,420,133,416
134,420,132,420
134,416,130,420
133,412,129,408
131,420,127,416
128,420,125,424
124,416,122,420
123,412,120,408
122,420,122,416
123,416,125,424
125,420,128,420
127,412,131,408
126,416,133,416
123,420,132,424
121,420,129,416
121,408,127,412
122,420,125,416
126,420,125,420
129,416,129,412
131,412,134,420
132,420,139,412
133,416,143,420
132,416,145,420
131,420,144,412
129,412,141,416
127,420,138,428
127,416,138,408
129,416,137,420
129,420,135,412
129,416,134,420
129,420,134,420
130,408,134,412
129,420,135,416
129,420,135,420
128,416,134,420
127,412,133,408
126,420,133,416
127,420,132,424
126,416,132,420
127,412,132,408
127,420,131,416
127,416,131,424
126,420,131,416
126,412,131,412
126,416,130,416
125,420,130,420
125,420,129,420
124,408,128,412
124,420,127,416
124,420,127,420
124,420,126,412
124,408,126,420
124,420,127,412
124,416,127,420
124,416,127,420
124,428,127,412
124,404,127,416
124,420,127,424
124,420,128,416
124,420,129,412
125,408,130,416
126,420,126,424
126,420,122,416
126,408,116,412
126,420,111,416
126,420,107,420
126,416,104,420
125,412,103,408
124,420,103,416
122,420,104,424
122,416,106,420
121,412,108,408
121,420,106,416
122,416,103,424
122,420,102,420
122,412,108,408
121,416,116,416
120,420,125,416
120,416,135,420
121,416,140,420
124,416,141,412
126,420,139,420
127,420,137,412
127,408,137,420
127,420,136,412
127,420,134,424
126,416,132,420
126,412,132,408
126,420,134,416
126,416,132,424
125,420,129,420
124,412,128,408
123,416,127,416
122,420,127,424
121,420,127,416
122,408,126,412
121,420,126,416
121,420,126,420
120,416,125,420
121,412,125,408
121,420,124,416
121,420,123,424
120,416,123,420
120,412,123,408
120,420,123,416
120,416,123,424
120,420,123,420
120,412,123,408
119,416,122,416
120,420,122,416
120,412,122,420
120,420,121,424
119,416,120,408
118,420,119,420
118,420,120,420
119,408,123,412
120,420,124,412
121,420,125,424
121,416,127,420
121,412,128,408
121,420,129,416
121,416,131,424
122,420,131,416
123,412,128,412
124,416,128,416
125,420,132,424
127,420,136,416
128,408,136,412
128,420,134,416
128,420,132,420
127,420,130,420
127,408,126,408
126,420,122,416
125,420,119,424
124,412,115,412
124,420,115,420
124,416,115,412
125,416,119,424
125,420,124,416
126,412,128,412
126,416,129,416
128,428,128,416
128,408,126,420
129,416,125,420
129,420,126,412
130,416,128,420
131,420,130,420
130,408,130,408
128,420,128,416
127,420,127,424
127,416,128,420
128,412,129,408
128,420,131,416
129,416,130,424
129,420,128,416
129,412,127,412
130,416,127,416
130,420,128,420
130,420,127,420
130,408,125,412
129,420,122,416
128,416,119,416
126,420,116,420
125,416,115,412
125,416,117,416
127,420,118,424
128,412,118,412
129,420,120,420
131,416,123,412
131,416,126,424
131,420,124,416
129,412,122,412
127,416,123,416
127,420,127,420
129,420,131,420
132,408,131,412
134,420,134,416
136,420,140,420
137,420,145,420
138,408,148,408
136,420,148,416
133,420,145,424
127,416,138,420
123,412,131,408
123,420,127,416
124,416,126,424
125,420,127,416
126,412,129,412
127,416,130,416
128,420,131,424
129,420,133,408
131,412,135,420
132,416,136,416
132,416,136,416
131,420,134,420
130,416,132,412
129,416,131,416
128,420,131,432
128,412,131,404
127,420,131,420
126,416,131,412
124,416,131,424
124,420,131,416
125,412,131,412
126,416,129,416
127,420,129,420
128,420,128,420
129,408,128,412
130,420,127,416
130,420,126,420
129,420,126,420
129,408,124,408
128,420,120,416
127,420,118,424
127,416,118,420
127,412,119,408
127,420,120,416
128,416,120,424
129,420,120,420
130,412,121,408
131,424,123,416
130,412,126,424
128,420,126,408
128,412,126,420
128,416,126,416
128,416,126,416
129,420,126,420
129,424,129,412
129,408,131,416
129,420,128,424
128,416,127,412
126,412,127,420
125,420,129,412
123,416,131,424
121,420,127,416
121,412,121,412
121,416,117,416
122,420,119,420
123,420,121,420
124,408,122,412
126,420,123,416
129,420,128,420
130,420,131,420
129,408,129,412
127,420,127,412
126,420,127,424
126,416,128,420
126,412,129,408
125,420,131,416
125,416,131,416
125,416,129,420
126,420,128,420
127,412,131,412
129,420,136,424
129,420,139,408
129,412,138,420
128,420,134,416
126,416,130,420
124,416,129,420
124,412,129,412
124,420,130,412
124,420,131,424
124,416,132,420
124,412,134,408
127,420,136,416
129,416,137,424
129,420,135,416
128,412,134,412
127,416,133,416
126,420,131,420
125,420,130,420
125,408,129,412
125,420,128,416
125,420,128,420
125,420,127,420
125,408,127,408
124,420,126,416
125,420,126,424
125,416,127,420
126,412,128,408
127,420,129,416
128,416,131,416
128,416,135,420
129,416,135,424
128,416,134,408
128,420,131,424
128,420,130,416
129,408,129,412
128,420,128,416
127,420,126,420
126,420,125,420
126,408,124,408
127,420,122,416
128,420,120,424
128,416,120,420
128,412,121,408
128,420,123,416
128,416,123,424
127,420,123,416
126,412,126,412
125,416,129,416
126,420,131,420
127,420,132,420
128,408,134,412
128,420,135,416
128,420,137,420
129,412,136,412
128,420,137,420
128,416,137,412
128,420,135,424
128,416,134,420
128,412,132,408
128,420,131,416
128,424,130,416
128,408,129,420
128,416,130,420
128,420,130,412
129,416,129,420
128,420,129,420
128,408,128,412
128,420,127,416
128,420,127,420
127,420,126,420
127,408,125,408
127,420,122,416
127,420,120,424
127,416,119,420
127,412,118,408
127,420,118,416
127,416,117,424
127,420,117,416
126,412,118,412
126,416,120,416
126,416,122,416
126,420,126,420
126,420,127,416
126,412,126,416
126,420,128,420
127,412,132,412
128,420,137,420
128,416,137,412
128,420,134,424
128,416,131,420
128,412,129,408
128,420,124,416
127,416,120,424
126,420,116,416
125,420,112,412
125,408,110,416
126,420,106,424
125,420,102,416
123,408,96,412
121,420,93,416
121,420,97,420
122,420,105,420
124,408,110,408
127,420,113,416
129,420,124,424
132,416,139,420
134,412,146,408
133,420,147,416
130,416,143,424
129,420,139,412
129,412,136,416
130,420,132,416
129,412,129,420
128,420,126,416
127,420,123,416
128,412,123,416
129,420,122,428
130,412,121,404
129,420,123,420
128,416,123,412
127,420,121,424
127,416,121,420
130,412,124,408
132,420,129,416
133,416,132,424
133,420,133,420
133,412,133,408
132,416,131,416
131,420,131,424
131,420,130,416
131,408,131,412
131,420,131,416
132,420,133,420
134,420,132,420
134,408,131,408
134,420,131,416
133,420,131,424
132,416,130,420
132,412,129,408
131,416,128,416
131,420,128,424
131,420,128,412
131,412,127,416
131,420,127,416
131,412,128,420
131,420,128,416
131,424,129,416
131,408,130,416
131,420,131,420
131,420,130,420
131,408,128,408
131,420,126,416
131,420,125,424
131,416,124,420
130,412,124,408
129,420,124,416
129,416,123,424
128,420,123,416
128,412,122,412
127,416,122,416
127,420,121,424
126,420,120,416
126,408,118,412
127,420,114,416
127,420,112,420
126,420,113,420
127,408,113,408
126,420,109,416
124,420,105,420
123,412,108,416
124,420,120,420
125,412,135,412
125,420,147,424
126,420,151,412
125,412,145,416
125,420,141,416
125,416,144,424
125,420,150,416
125,408,151,412
125,420,147,416
125,420,140,420
125,420,134,420
124,408,129,408
123,420,129,416
122,420,129,424
123,416,131,420
123,412,134,408
124,420,136,416
124,416,137,424
124,420,136,416
123,412,135,412
124,416,134,416
124,420,133,420
124,420,132,420
124,408,131,412
123,420,131,416
123,420,130,420
123,416,129,420
123,412,129,412
122,420,129,412
123,420,129,420
123,412,129,416
123,420,129,428
123,412,129,404
123,420,129,424
124,420,128,416
124,412,129,412
124,416,129,416
125,420,131,420
125,420,131,420
126,408,131,412
126,420,131,416
127,420,132,420
127,420,133,420
128,408,133,408
128,420,132,416
128,420,131,424
128,416,131,420
128,412,130,408
128,420,129,416
128,416,129,424
128,420,129,416
128,412,128,412
128,416,126,416
128,420,124,420
128,412,124,416
129,420,125,420
128,420,126,412
129,416,126,420
129,420,127,420
129,408,127,408
129,420,127,416
129,424,128,420
130,408,129,416
130,420,129,420
130,416,129,412
130,416,132,424
130,420,134,416
130,412,134,412
129,416,131,416
129,420,129,420
129,420,128,420
129,408,128,412
129,420,128,416
129,420,128,420
129,420,128,420
129,416,128,408
129,412,128,416
129,420,128,424
129,416,128,420
129,412,128,408
129,420,128,416
129,412,128,420
129,420,128,416
129,420,128,416
129,412,129,416
130,420,129,420
130,412,129,416
129,420,129,416
129,420,128,416
129,416,128,420
129,420,128,420
129,408,128,408
129,420,128,416
129,420,128,424
129,416,128,420
129,412,128,408
129,420,128,416
129,416,128,424
129,420,128,416
130,412,129,412
130,416,129,416
130,420,128,424
129,420,128,416
129,408,128,412
129,420,126,416
129,420,123,420
128,416,120,420
129,412,118,408
129,420,117,416
129,420,118,424
129,416,118,412
129,412,118,420
128,420,117,412
128,412,118,420
127,420,119,416
127,420,119,416
128,412,123,416
129,420,130,428
131,412,137,408
131,420,143,416
131,420,142,416
131,416,140,420
131,420,135,420
131,408,131,412
130,420,129,412
131,420,129,424
132,416,131,420
133,412,132,408
134,420,130,416
134,416,128,424
133,420,126,416
132,412,124,412
132,416,121,416
131,420,120,424
131,420,119,416
129,408,120,412
130,420,121,416
130,420,126,420
130,420,129,420
131,408,133,408
131,424,134,416
130,416,132,424
130,416,128,412
130,412,124,420
131,420,121,412
131,412,122,420
132,420,125,416
132,424,127,416
131,408,129,416
130,420,129,424
129,420,128,408
129,412,128,420
129,416,128,416
129,420,129,420
131,420,131,420
131,408,134,408
132,420,135,416
132,420,134,424
131,416,133,420
131,412,132,408
130,420,131,416
129,416,131,424
130,420,131,416
131,412,131,412
131,416,131,416
132,420,130,420
131,420,129,420
131,408,128,412
130,420,128,416
130,420,128,416
130,412,127,420
130,420,127,416
130,412,127,412
130,424,127,424
130,424,128,412
130,404,128,420
130,420,128,412
130,416,128,424
130,420,128,416
130,412,128,412
130,416,127,416
130,420,127,424
130,420,127,416
130,408,126,412
129,420,123,416
129,420,120,420
129,420,118,420
128,408,116,408
128,420,115,416
128,416,115,424
127,420,117,420
127,412,119,408
126,420,120,416
126,416,122,424
126,420,125,416
126,412,128,412
128,416,133,416
130,420,137,424
130,420,139,416
130,408,137,412
130,420,133,416
129,420,129,416
128,412,127,420
127,420,125,424
126,412,124,404
125,424,125,424
125,416,126,420
125,412,126,408
124,420,123,416
125,416,123,424
125,420,127,420
126,412,128,408
127,416,127,416
127,420,126,424
127,420,127,416
127,408,126,412
126,420,127,416
126,420,131,420
127,416,132,420
126,420,131,408
126,412,131,416
125,420,129,424
124,416,127,420
124,412,125,408
126,420,124,416
127,416,124,424
128,416,125,412
129,416,126,420
128,420,126,412
127,416,128,420
126,420,129,420
126,408,129,412
125,420,129,416
125,424,128,416
124,408,128,420
125,420,131,416
126,420,133,412
126,416,134,424
126,416,133,420
126,412,131,408
126,420,131,416
127,416,133,424
126,420,132,416
126,412,131,412
126,416,129,416
125,420,128,420
124,420,127,420
124,408,127,412
123,420,126,416
123,420,127,420
124,420,129,420
124,408,131,412
124,420,130,412
124,416,129,420
124,416,128,420
124,420,125,412
124,412,123,416
124,420,122,424
124,416,124,412
124,416,126,416
124,420,126,416
125,416,126,424
126,420,125,416
126,408,124,412
126,420,123,416
126,420,124,420
126,416,126,420
127,412,126,408
127,420,126,416
127,420,127,424
127,416,128,420
127,412,128,408
127,420,126,416
127,416,125,424
128,420,124,420
128,412,126,408
127,416,126,416
127,420,126,424
128,420,127,416
129,408,129,412
129,420,133,416
129,420,133,420
129,420,130,412
128,408,127,420
127,420,126,412
127,416,126,420
126,416,126,420
127,420,128,412
127,412,129,416
127,420,129,428
127,416,129,408
127,416,129,420
128,420,129,412
128,416,129,424
129,420,129,416
129,408,129,412
129,420,128,416
129,420,128,420
129,416,128,420
129,412,128,408
129,420,127,416
128,420,127,424
128,416,127,420
128,412,127,408
128,420,127,416
128,416,127,424
128,420,127,420
129,412,127,408
129,416,127,416
129,420,128,424
126,420,131,416
124,408,132,412
123,420,129,416
127,420,127,420
128,420,126,412
128,408,125,420
128,420,125,412
128,416,126,420
129,416,127,420
129,424,128,412
128,408,128,416
128,420,128,424
128,420,127,416
128,412,127,412
128,416,126,416
128,420,126,424
128,420,126,416
128,408,126,412
127,420,126,416
127,420,126,420
127,420,126,420
127,408,126,408
127,420,126,416
128,420,126,424
127,416,126,420
127,412,126,408
127,420,126,416
127,416,126,424
126,420,126,416
126,412,126,412
126,416,127,416
126,420,127,416
127,416,127,420
127,416,127,420
126,416,127,412
127,420,126,420
127,424,127,412
128,404,127,420
128,420,127,412
129,420,127,424
128,416,127,420
128,412,126,408
128,420,125,416
128,416,125,424
127,420,124,416
128,412,124,412
128,416,124,416
128,420,123,420
128,420,123,420
127,408,122,412
127,420,121,416
126,420,120,420
125,416,121,420
126,412,122,412
126,420,123,412
127,420,124,424
127,416,125,420
128,412,126,408
128,420,126,416
127,416,126,424
127,420,128,416
126,412,129,412
124,416,129,416
125,420,130,416
127,412,131,420
128,420,133,424
129,416,135,408
130,420,136,420
129,420,135,420
129,408,131,408
128,420,128,416
127,420,126,424
127,416,126,420
126,412,125,408
125,420,126,416
126,416,127,424
127,420,127,416
127,412,127,412
128,416,129,416
129,420,130,424
129,420,131,416
129,408,130,412
129,420,130,416
130,420,129,420
129,420,129,420
129,408,129,408
129,420,129,416
129,420,128,424
129,412,128,412
129,420,128,420
128,416,128,412
128,416,128,424
128,420,128,420
128,412,128,408
128,416,128,416
128,424,128,416
128,408,128,420
128,420,128,420
128,420,128,412
128,416,128,420
128,420,128,420
128,408,127,412
128,420,128,412
128,420,128,424
128,416,128,420
128,412,128,408
128,420,128,416
128,416,129,424
128,420,129,416
128,420,128,412
128,408,128,416
128,420,128,424
128,420,128,416
128,408,127,412
128,420,127,416
128,416,127,416
128,420,127,420
128,416,127,412
128,416,126,416
128,420,125,424
127,412,125,412
127,420,127,420
128,424,128,412
128,408,128,424
129,420,129,416
129,412,129,412
129,416,129,416
129,420,128,420
129,420,127,420
129,408,127,412
128,420,127,416
128,420,127,420
128,420,127,420
128,408,126,408
128,420,127,416
128,420,127,424
128,416,127,420
128,412,127,408
128,420,128,416
128,416,129,424
128,420,129,416
129,412,129,412
129,416,129,416
128,420,129,420
128,420,128,412
128,412,128,420
128,416,128,416
128,416,128,416
128,420,128,420
128,416,128,412
128,416,128,416
128,420,128,432
128,412,127,404
128,420,128,420
128,416,127,412
128,416,128,424
127,420,128,416
127,412,128,412
127,416,128,416
127,420,127,420
127,420,126,420
127,408,126,412
126,420,126,416
126,420,125,420
126,420,125,420
126,408,126,408
126,420,125,416
126,420,126,424
126,416,126,420
126,412,127,408
126,420,127,416
125,416,128,424
125,420,129,420
126,412,131,408
126,424,131,416
127,412,131,424
126,420,130,408
126,412,129,420
126,416,128,416
125,416,127,416
124,420,127,420
124,420,127,420
125,408,127,408
125,424,127,424
126,416,127,412
126,412,127,420
126,420,128,412
127,416,128,424
128,420,127,416
129,412,127,412
130,416,127,416
130,420,126,420
131,420,126,420
131,408,126,412
131,420,126,416
131,420,124,420
132,420,124,420
132,408,123,412
132,420,123,412
132,420,123,424
131,416,123,420
130,412,123,408
130,420,124,416
129,416,124,416
129,416,123,420
129,420,122,420
129,412,124,412
129,420,126,424
129,424,128,408
130,408,127,420
130,420,125,416
130,416,125,420
130,420,126,420
129,408,126,408
129,420,126,416
129,420,124,424
128,416,124,420
128,412,124,408
128,420,124,416
128,416,126,424
128,420,127,416
127,412,128,412
127,416,128,416
127,420,129,420
127,420,130,420
128,408,131,412
128,420,131,416
128,420,130,420
128,420,128,420
128,408,127,408
128,420,127,416
128,420,127,424
128,416,127,420
128,412,128,408
128,420,129,416
128,416,129,416
128,416,129,420
128,416,129,424
128,416,129,408
128,420,129,420
128,420,129,420
128,408,128,412
128,420,128,416
128,420,128,420
128,416,127,420
128,412,127,412
128,420,127,412
128,420,127,424
128,416,127,420
128,412,127,408
128,420,124,416
128,416,122,424
127,420,120,416
127,412,119,412
127,416,116,416
127,420,113,420
127,420,111,420
126,408,110,412
126,420,110,416
125,420,110,420
125,412,112,412
124,420,113,420
124,416,113,412
124,420,114,424
125,416,118,420
126,412,124,408
126,420,131,416
127,420,134,424
128,420,140,412
128,408,146,416
130,420,151,416
130,416,151,420
131,420,146,420
129,408,140,412
128,420,135,416
127,420,132,420
126,420,131,420
125,408,130,408
125,420,130,416
125,420,131,424
126,416,133,420
126,412,134,408
126,420,133,416
127,416,133,424
128,420,134,416
129,412,135,412
129,416,135,416
128,416,132,416
128,420,130,420
127,420,129,416
127,412,129,416
127,420,127,420
127,412,125,412
127,420,125,420
126,424,124,412
126,412,124,424
126,416,123,420
125,412,123,408
126,420,124,416
126,416,125,424
126,420,126,416
126,420,127,412
126,408,123,416
127,420,119,424
127,420,116,416
127,408,113,412
126,420,112,416
125,420,110,420
124,420,107,420
124,408,106,408
123,420,108,416
124,420,112,424
125,416,115,420
126,412,119,408
127,420,127,416
129,416,133,424
130,420,137,412
132,412,139,416
132,420,142,416
133,412,146,420
132,420,148,416
131,420,145,416
128,412,139,416
127,420,134,428
127,412,132,404
127,420,131,420
128,416,133,412
129,420,136,424
129,416,139,420
130,412,140,408
130,420,137,416
130,416,131,424
130,420,127,416
129,412,124,412
127,416,123,416
128,420,123,420
128,420,124,420
128,408,125,412
128,420,127,416
129,420,128,420
129,420,128,420
128,408,127,412
127,420,127,412
126,420,129,424
126,416,131,420
127,412,132,408
128,416,133,416
129,420,133,424
129,420,133,412
129,412,132,416
129,420,131,416
129,412,129,420
128,420,129,416
128,420,128,420
128,420,128,412
128,412,127,420
128,420,127,420
128,408,127,408
128,420,127,416
128,420,127,424
128,416,127,420
128,412,127,408
128,420,127,416
128,416,127,424
128,420,128,416
128,412,128,412
128,416,127,416
128,420,128,424
128,420,128,416
128,408,127,412
128,420,127,416
128,420,128,420
128,420,127,420
128,408,127,408
128,420,127,416
129,420,127,420
128,412,127,416
129,420,127,420
128,412,127,412
129,420,127,424
129,428,127,412
129,404,127,416
129,420,127,416
128,416,127,420
128,420,128,420
128,408,128,412
128,420,128,416
128,420,128,420
128,420,129,420
128,408,128,412
129,420,127,412
129,420,127,424
129,416,127,420
128,412,127,408
128,420,126,416
128,416,126,424
128,420,126,416
128,412,127,412
128,416,127,416
128,420,127,424
128,420,127,416
128,408,128,412
128,420,128,416
128,420,128,420
128,420,128,420
128,408,128,408
128,420,128,416
128,420,128,420
127,412,128,416
127,420,128,428
128,412,127,404
127,420,128,424
128,420,127,416
128,412,127,412
128,416,127,416
128,420,127,424
127,420,127,416
127,408,127,412
127,420,127,416
128,420,127,420
127,420,127,420
128,408,127,408
128,420,127,416
128,420,127,424
128,416,128,420
128,412,128,408
128,420,128,416
128,416,128,424
127,420,128,416
127,412,129,412
127,416,128,416
128,420,128,424
128,412,128,412
128,420,128,416
128,420,128,416
128,416,128,420
129,420,127,420
128,408,128,408
128,420,127,416
128,420,127,424
129,420,127,412
129,408,126,420
129,420,127,412
129,416,128,424
129,420,128,416
129,412,128,412
129,416,127,416
129,420,127,424
129,420,127,416
130,408,128,412
129,420,128,416
128,420,128,420
128,420,128,420
129,408,128,408
129,420,128,416
129,420,127,424
129,416,127,420
129,412,127,408
129,420,127,416
128,412,127,420
128,420,127,416
128,420,125,416
129,412,125,416
129,420,125,420
129,412,126,416
129,420,126,420
129,424,126,412
129,412,125,420
129,420,124,420
129,408,123,412
128,420,122,412
127,416,121,424
128,420,120,420
127,412,119,408
127,420,118,416
128,416,116,424
128,420,115,416
128,420,113,412
127,408,113,416
127,420,115,424
128,420,117,416
128,408,118,412
127,420,119,416
128,420,120,420
128,420,122,420
128,408,126,408
126,420,131,416
127,420,135,424
127,416,135,412
128,412,136,420
130,420,140,412
132,412,144,420
132,420,143,416
131,420,138,416
130,412,134,416
129,420,131,428
127,412,130,408
128,420,130,420
128,420,131,412
130,416,131,420
130,420,132,420
129,408,134,408
129,420,135,416
130,416,134,424
129,420,134,420
130,412,134,408
131,420,135,416
131,416,135,424
131,420,134,416
131,412,132,412
129,416,130,416
128,420,128,420
127,420,127,420
127,408,126,412
127,420,126,416
127,420,127,420
127,420,127,420
127,416,127,408
125,416,129,416
125,416,129,424
125,416,127,412
125,412,127,420
125,420,130,412
126,412,133,420
127,420,132,416
127,420,129,420
127,420,129,412
127,412,129,420
128,420,129,420
129,408,129,412
129,420,126,416
128,420,121,420
127,420,117,420
127,408,115,408
127,420,117,416
128,420,119,424
128,416,121,420
127,412,121,408
126,420,121,416
126,416,120,424
126,420,121,416
125,412,124,412
125,416,129,416
125,420,131,424
126,420,133,416
127,408,135,412
128,420,136,416
128,420,135,416
129,412,132,420
128,420,130,416
127,412,128,412
126,424,127,424
125,424,127,412
126,404,128,420
127,420,128,412
128,416,128,424
128,420,128,420
128,412,128,408
128,416,127,416
129,420,128,424
128,420,129,416
128,408,131,412
128,420,131,416
128,420,132,420
127,420,131,420
126,408,130,412
126,420,129,412
126,420,128,424
126,416,128,420
126,412,128,408
126,420,127,416
126,416,126,424
125,420,127,416
125,412,126,412
126,416,126,416
127,420,126,424
127,420,126,416
127,408,126,412
128,420,126,416
128,420,127,416
128,412,127,420
128,420,127,424
128,412,127,404
128,424,127,424
128,416,127,420
127,412,127,408
127,420,127,416
127,416,128,424
127,420,128,416
126,412,128,412
127,416,127,416
127,420,126,424
127,420,127,408
127,412,126,420
127,416,126,416
127,420,126,420
127,420,125,420
127,408,125,408
127,420,125,416
128,416,125,424
128,420,124,420
128,420,125,408
128,408,126,416
128,420,126,424
128,416,127,412
128,416,127,420
128,420,127,412
129,416,127,424
128,420,128,424
128,408,128,404
128,420,128,416
128,420,128,420
127,416,128,420
127,412,128,408
127,420,127,416
127,420,126,424
127,416,126,420
127,412,126,408
127,420,126,416
127,416,126,424
127,420,126,420
127,412,126,408
127,416,126,416
127,420,127,424
128,420,127,416
128,408,127,412
128,420,127,416
129,420,127,420
128,420,127,420
128,408,127,412
128,420,127,412
128,416,127,420
128,416,127,420
128,420,127,412
127,412,127,416
127,420,127,424
127,416,126,412
127,416,126,420
127,424,125,412
127,412,124,424
127,420,124,416
128,408,124,412
128,420,124,416
128,420,124,420
128,420,125,420
128,408,126,408
128,420,126,416
127,420,127,424
127,416,129,420
128,412,131,408
129,420,132,416
129,416,133,424
128,420,133,416
128,412,131,412
128,416,128,416
127,420,125,424
127,420,124,408
127,412,123,420
127,416,121,416
127,420,120,420
127,420,120,412
127,408,121,420
127,420,123,412
127,416,125,420
126,416,126,420
126,420,126,412
126,412,125,416
126,420,126,428
126,412,129,408
127,420,134,420
129,420,136,412
130,416,136,420
130,420,135,420
130,408,133,412
129,420,131,416
128,420,131,420
128,420,130,420
127,408,129,412
127,420,129,412
126,420,129,424
126,416,129,420
127,412,128,408
127,420,128,416
127,416,127,424
127,420,127,416
127,412,127,412
127,416,128,416
127,420,129,416
127,412,128,420
127,420,127,420
128,416,126,412
129,420,126,420
129,420,127,412
130,408,128,420
130,420,128,412
130,416,128,420
129,416,128,420
129,420,127,420
128,420,126,408
128,412,126,424
128,420,128,416
129,412,130,412
129,416,129,416
129,420,129,424
129,420,129,416
129,408,130,412
129,420,131,416
128,420,131,420
127,416,129,420
127,412,127,408
126,420,125,416
127,420,125,424
127,416,126,420
128,412,127,408
129,420,128,416
130,416,128,424
129,420,127,420
129,412,127,408
128,416,126,416
128,420,128,416
128,416,130,420
128,416,132,420
128,416,132,412
129,420,134,420
129,424,135,412
129,404,135,420
129,420,133,412
129,420,128,424
128,416,124,420
128,412,122,408
128,420,122,416
128,416,123,424
128,420,124,416
128,412,126,412
128,416,127,416
127,420,129,420
126,420,129,420
127,408,129,412
128,420,130,416
129,420,130,420
129,416,131,420
130,412,132,408
130,420,132,416
130,420,134,424
129,416,134,420
129,412,132,408
128,420,130,416
128,416,128,424
128,420,128,416
128,412,127,412
127,416,127,416
128,420,127,416
128,412,129,420
129,420,129,424
129,416,129,408
130,420,128,420
129,420,127,420
129,408,127,412
128,420,127,412
128,420,127,424
127,416,127,420
127,412,127,408
127,420,128,416
128,416,127,424
128,420,127,416
128,420,127,412
128,408,126,416
129,420,127,424
126,420,132,416
125,408,131,412
124,420,122,416
126,420,116,420
126,416,115,420
127,420,114,408
127,412,115,416
126,420,118,424
127,412,121,412
127,420,124,420
128,416,126,412
128,416,131,424
128,420,133,424
129,412,134,404
129,416,135,416
128,420,135,420
128,420,136,420
127,408,135,412
127,420,132,416
128,420,130,420
128,420,129,420
128,408,128,412
127,420,128,412
128,420,127,424
127,416,127,420
127,412,127,408
127,420,127,416
127,416,127,424
126,420,127,416
126,420,127,412
125,408,127,416
126,420,127,424
127,420,127,416
128,408,127,412
128,420,126,416
128,416,125,416
128,420,124,420
128,416,124,412
127,416,125,416
127,420,125,424
127,412,126,412
126,420,126,420
126,424,126,412
127,408,126,424
127,420,127,416
127,412,129,412
128,416,131,416
128,420,129,420
127,420,128,420
127,408,128,412
127,420,127,416
127,420,127,420
128,420,127,420
128,408,127,408
128,420,127,416
128,420,127,424
128,416,127,420
128,412,127,408
128,420,127,416
128,416,127,424
127,420,127,416
127,412,127,412
127,416,127,416
127,420,126,420
127,420,125,412
127,412,125,420
127,416,124,416
127,416,124,416
127,420,123,420
127,416,121,412
127,416,120,416
127,420,119,428
126,412,119,408
126,420,121,420
126,416,124,412
127,416,126,424
128,420,128,416
129,412,130,412
130,416,134,416
130,420,135,420
129,420,135,420
129,408,133,412
129,420,130,416
129,420,129,420
128,420,128,420
128,408,128,408
128,420,128,416
128,420,128,424
128,416,128,420
127,412,128,408
127,420,128,416
127,416,127,416
127,416,127,420
128,416,127,420
128,416,126,412
128,420,126,424
128,420,125,408
128,412,126,420
128,416,127,416
128,416,127,416
128,420,128,420
128,416,128,420
129,420,127,408
129,416,127,424
128,416,126,420
128,412,126,408
128,420,126,416
128,416,126,424
128,420,125,416
128,412,124,412
127,416,122,416
127,420,121,420
126,420,119,420
125,408,119,412
125,420,119,416
126,420,119,420
126,420,120,420
126,408,121,412
126,420,122,412
126,420,124,424
126,416,125,420
126,412,126,408
126,420,128,416
127,416,133,416
128,416,137,420
129,420,139,420
130,412,139,412
130,420,137,424
130,424,135,408
129,408,133,420
129,420,131,416
129,416,130,420
129,420,129,420
129,408,129,408
129,420,128,416
128,420,128,424
128,416,128,420
128,412,128,408
128,420,128,416
128,416,130,424
128,420,132,416
129,412,134,412
129,416,131,416
129,420,129,420
128,420,126,420
128,408,124,412
128,420,122,416
127,420,120,420
127,420,120,420
126,408,120,408
126,420,120,416
126,420,119,424
126,416,119,420
126,412,119,408
126,420,119,416
127,416,121,416
127,416,127,420
128,416,132,424
128,416,132,408
129,420,131,420
129,420,131,420
129,408,132,412
129,420,132,416
128,420,131,420
127,416,129,420
127,412,128,412
127,420,127,412
128,420,129,424
128,416,130,420
128,412,131,408
129,420,132,416
129,416,132,424
129,420,132,416
129,412,131,412
129,416,130,416
129,420,129,420
129,420,129,420
129,420,129,412
128,408,129,416
128,420,129,420
128,412,129,416
128,420,129,416
128,416,128,412
128,420,128,424
128,416,128,424
128,412,127,404
128,420,127,416
128,416,127,424
127,420,127,416
127,412,127,412
127,416,127,416
128,420,126,424
128,420,125,416
128,408,125,412
127,420,124,416
127,420,123,420
126,420,123,420
126,408,123,408
126,420,123,416
126,420,123,424
126,416,123,420
127,412,123,408
128,420,124,416
128,416,127,424
129,420,130,416
129,412,133,412
128,416,133,416
127,416,130,416
127,420,129,420
127,420,126,416
126,412,125,416
126,420,126,420
126,412,128,412
127,420,129,420
127,424,128,412
127,412,128,424
127,416,126,420
127,412,126,408
128,420,127,416
128,416,130,424
129,420,131,416
128,412,131,412
127,416,130,416
126,420,129,420
126,420,129,420
127,408,129,412
128,420,129,416
129,420,129,420
129,420,127,420
129,408,126,412
129,420,126,412
129,420,125,424
128,416,125,420
128,412,126,408
128,420,126,416
128,416,126,424
128,420,126,412
127,412,127,416
127,420,127,416
127,412,128,420
127,420,129,416
128,420,131,416
129,412,132,416
129,420,134,424
130,412,134,408
130,420,132,420
129,416,129,412
128,420,127,424
128,416,125,420
128,412,124,408
128,420,124,416
128,416,124,424
128,420,124,416
128,412,125,412
127,416,125,416
127,420,126,424
127,420,126,416
127,408,126,412
128,420,126,416
128,420,128,420
128,420,130,420
128,408,132,408
128,420,132,416
128,420,131,420
128,412,130,416
128,420,129,420
127,412,128,412
127,420,127,424
127,420,127,412
127,412,126,416
127,420,126,416
127,412,127,420
127,420,127,416
128,420,127,420
128,416,127,412
128,416,127,420
127,420,127,420
127,416,127,408
127,412,126,416
127,420,126,424
127,416,127,420
128,412,127,408
128,420,127,416
128,416,127,424
127,420,127,416
127,412,127,412
127,416,126,416
127,420,126,420
127,420,126,420
127,408,126,412
127,420,126,416
127,420,126,420
127,420,126,420
127,408,126,408
127,420,126,416
127,420,126,420
127,412,126,416
127,420,126,420
127,412,126,412
127,420,126,424
127,428,126,412
128,404,127,416
128,420,127,416
128,416,127,424
128,420,127,416
128,408,126,412
127,420,126,416
127,420,126,420
126,420,126,420
126,408,126,408
125,420,126,416
124,420,126,424
123,416,126,420
122,412,126,408
121,420,126,416
120,416,126,424
120,420,126,416
120,412,126,412
120,416,126,416
120,420,126,420
120,420,126,420
120,408,126,412
121,420,126,416
123,420,127,420
126,420,128,420
129,408,127,412
131,420,126,412
134,420,125,420
134,412,124,416
135,420,124,424
136,412,124,408
137,420,124,424
136,420,124,416
134,412,124,412
132,416,124,416
131,420,124,424
129,420,125,416
129,408,125,412
129,420,125,416
129,420,125,420
128,420,125,420
128,408,125,408
128,420,126,416
129,420,127,424
129,416,129,420
129,412,129,408
129,420,128,416
130,416,129,424
131,420,129,416
131,420,130,412
131,408,130,416
130,420,129,424
129,412,129,412
129,420,129,420
129,420,129,412
129,416,129,420
129,420,129,428
129,408,129,400
128,420,129,416
128,420,129,424
128,416,128,420
128,412,128,408
127,420,128,416
126,416,127,424
126,420,127,416
126,412,126,412
126,416,127,416
125,420,127,424
124,420,127,416
123,408,127,412
122,420,126,416
121,420,126,420
120,416,126,420
121,412,126,408
121,420,126,416
121,420,126,424
122,416,126,420
121,412,126,408
120,420,126,416
120,412,127,420
120,420,127,416
122,420,126,416
123,412,126,416
125,420,126,420
126,412,125,416
128,420,125,416
129,424,126,416
132,412,126,420
134,420,127,420
135,408,128,412
134,420,129,412
131,420,128,424
127,416,127,420
123,412,126,408
121,420,125,416
120,416,124,424
119,420,124,416
118,412,124,412
119,416,125,416
120,420,125,424
120,420,126,416
120,408,126,412
120,420,125,416
121,420,124,420
123,420,124,420
124,408,124,408
125,420,124,416
125,420,124,424
125,416,124,412
126,412,125,420
128,420,126,412
131,412,127,420
133,420,128,420
134,420,129,412
134,412,130,416
136,420,131,424
139,420,134,408
141,412,135,420
142,416,135,416
142,420,134,420
140,420,133,420
139,408,132,408
137,420,131,416
136,420,130,424
136,416,129,420
136,412,128,408
136,420,128,416
135,416,128,424
134,420,129,416
132,412,129,412
130,416,129,416
129,420,129,420
128,420,129,420
127,408,128,412
125,420,128,416
124,420,128,416
121,412,127,420
121,420,128,416
120,412,128,412
119,424,127,424
119,416,126,412
117,412,125,420
114,420,124,412
113,412,123,420
112,420,123,416
113,420,122,420
114,416,121,412
115,416,120,424
115,420,121,416
115,408,121,412
113,420,121,416
112,420,121,420
110,420,122,420
112,408,123,408
113,420,123,416
114,416,124,424
115,420,124,420
116,412,125,408
117,420,125,416
119,416,126,424
120,420,127,416
123,412,128,412
126,416,129,416
128,420,130,424
131,420,130,416
135,408,131,412
136,420,130,416
136,420,129,416
135,412,129,420
135,420,128,416
134,412,127,412
133,424,126,424
131,424,125,412
131,404,124,420
131,420,124,412
134,416,124,424
135,420,124,420
136,412,124,408
135,416,123,416
132,420,123,424
130,420,122,416
129,408,123,412
128,420,123,416
127,420,124,420
126,416,125,420
124,420,126,408
121,412,126,416
119,420,126,424
119,416,126,420
120,412,126,408
123,420,127,416
128,416,127,424
132,420,128,416
135,412,129,412
137,416,131,416
136,420,131,420
135,420,131,420
134,408,131,412
134,420,130,416
132,420,131,416
131,412,131,420
130,420,130,420
130,420,130,408
132,416,131,424
135,416,131,420
139,412,131,408
139,420,130,416
139,416,129,424
136,420,129,416
134,412,129,412
133,416,129,416
134,420,129,420
132,420,128,420
131,408,127,412
131,420,126,416
131,420,126,420
131,420,126,420
130,408,126,408
130,420,126,416
127,416,126,424
124,420,126,420
120,420,126,408
118,408,126,416
119,420,126,424
121,416,126,412
124,416,124,420
128,420,124,412
131,416,126,420
132,420,127,428
133,408,128,404
135,420,127,416
135,420,125,420
134,416,124,420
128,412,124,408
123,420,126,416
119,420,127,424
118,416,129,420
119,412,130,408
121,420,131,416
124,416,131,424
123,420,132,416
120,412,131,412
116,416,131,416
112,420,130,420
110,420,129,420
108,408,129,412
105,420,129,416
102,420,128,420
103,420,128,420
107,408,129,412
110,420,129,412
112,416,130,420
112,416,130,420
113,420,129,412
113,412,130,416
118,420,131,424
124,416,131,412
129,416,131,416
133,424,130,416
134,412,129,424
136,420,128,416
140,408,127,412
143,420,126,416
141,420,126,420
137,416,126,420
133,412,126,408
130,420,126,416
129,420,125,424
126,416,124,420
122,412,124,408
117,420,123,416
115,416,123,424
115,420,124,420
117,412,124,408
121,416,123,416
127,420,123,420
132,420,123,420
136,408,123,412
139,420,125,416
141,420,126,420
142,420,126,412
140,412,125,420
136,416,125,412
132,416,124,420
131,416,124,420
132,420,124,412
134,412,124,416
134,420,123,424
134,420,123,416
135,412,122,412
135,416,123,416
136,420,124,420
137,420,126,420
139,408,127,412
141,420,127,416
141,420,128,420
141,416,128,420
140,420,128,408
139,412,128,416
137,420,128,424
135,416,128,420
134,412,128,408
133,420,128,416
133,416,128,424
133,420,128,420
134,412,128,408
133,416,128,416
131,420,128,416
128,416,127,420
127,416,126,420
124,416,125,412
121,420,124,420
119,420,123,412
115,408,122,420
110,420,122,412
104,416,122,420
99,420,123,420
94,416,123,420
93,420,123,408
93,412,123,424
94,420,123,420
95,412,124,408
96,416,125,416
98,420,125,424
101,420,125,416
104,408,126,412
107,420,126,416
109,420,126,420
111,416,126,420
115,412,125,408
120,420,125,416
131,420,125,424
140,416,125,420
145,412,122,408
145,420,120,416
143,416,118,424
143,420,118,420
145,412,118,408
140,416,117,416
134,420,118,416
134,412,119,420
140,420,121,420
144,416,122,412
143,420,123,420
143,424,123,412
141,404,124,420
137,420,124,412
134,420,124,424
132,416,125,420
132,412,126,408
134,420,126,416
137,416,126,424
139,420,126,416
141,412,127,412
143,416,129,416
146,420,129,424
147,420,128,416
147,408,128,412
147,420,126,416
145,420,126,420
142,420,124,420
140,408,124,408
138,420,123,416
136,420,123,424
135,416,123,420
134,412,124,408
133,420,124,416
132,416,124,424
132,420,124,416
131,412,125,412
129,416,125,416
127,420,126,416
126,416,125,420
125,416,125,420
125,420,126,412
126,416,127,420
126,420,129,420
127,408,129,408
126,420,129,416
124,420,128,424
121,416,129,420
117,412,129,408
112,420,129,416
109,416,129,424
109,420,129,416
110,412,129,412
109,416,128,416
107,420,127,420
106,420,126,420
106,408,124,412
106,420,123,416
107,420,124,420
107,416,124,420
106,420,123,408
103,412,124,416
100,420,125,424
100,412,124,412
100,420,124,420
98,416,124,412
97,416,123,424
97,420,123,424
98,412,124,404
103,416,124,416
108,420,124,420
115,420,125,420
125,408,127,412
134,420,129,416
139,420,130,420
142,420,131,420
144,408,129,412
145,420,126,412
143,420,124,424
139,416,121,420
128,412,116,408
114,420,112,416
105,416,110,424
100,420,109,416
96,412,110,412
94,416,112,416
92,420,114,420
91,420,117,420
91,408,120,412
91,420,123,416
92,416,124,416
88,420,124,420
85,416,123,412
83,416,122,416
81,420,121,424
79,412,119,412
79,420,117,420
82,424,117,412
92,408,119,424
103,420,121,416
116,412,124,412
135,416,126,416
160,420,129,420
184,420,132,420
199,408,135,412
208,420,138,416
215,420,142,420
212,420,143,420
201,408,143,408
188,420,140,416
176,420,138,424
163,416,136,420
156,412,135,408
150,420,134,416
147,416,132,424
147,420,130,416
148,412,129,412
148,416,129,416
150,420,130,420
151,420,131,412
150,412,132,420
149,416,133,416
148,416,135,416
146,420,135,420
147,416,135,412
149,416,134,416
153,420,134,424
159,416,134,420
165,412,134,408
168,420,133,416
172,416,132,424
172,420,131,416
169,420,129,412
166,408,128,416
159,420,129,420
154,420,133,420
151,408,137,412
147,420,134,416
143,420,134,420
139,420,135,420
135,408,136,408
131,420,137,416
127,420,137,424
121,416,136,420
120,412,135,408
121,420,133,416
122,416,132,416
121,416,132,420
121,416,132,420
123,416,131,412
125,420,131,424
129,420,130,408
131,412,129,420
131,416,128,416
129,416,129,416
127,420,129,420
123,416,128,420
119,420,128,408
118,416,128,424
116,416,129,420
117,412,129,408
118,420,130,416
119,416,130,424
119,420,129,416
120,412,128,412
121,416,127,416
123,420,127,420
123,420,128,420
121,408,129,412
119,420,129,416
118,420,129,420
117,420,129,420
116,408,129,412
113,420,129,412
113,420,128,424
117,416,129,420
123,412,129,408
131,420,129,416
138,416,128,416
143,416,126,420
143,416,126,420
141,416,127,412
138,420,129,424
132,424,130,408
130,408,131,420
130,420,131,416
130,416,131,420
128,420,131,420
127,408,131,412
126,420,130,412
127,420,130,424
124,416,130,420
119,412,129,408
116,420,128,416
116,416,127,424
118,420,127,416
120,412,127,412
120,416,128,416
120,420,128,420
122,420,129,420
124,408,128,412
126,420,127,416
129,420,128,420
132,412,129,412
134,420,131,420
135,416,131,412
135,420,132,424
133,416,131,420
131,412,131,408
128,420,130,416
127,416,129,416
123,416,127,420
119,416,126,420
115,420,124,412
115,416,124,424
115,420,124,416
115,408,124,412
116,420,124,416
118,420,126,420
121,420,126,420
125,408,126,408
126,420,127,416
127,420,127,424
129,416,127,420
133,412,126,408
134,420,125,416
132,416,125,424
130,420,125,416
126,412,124,412
122,416,124,416
120,420,123,420
116,420,123,420
111,420,125,412
105,408,126,416
101,420,127,420
100,412,126,412
100,420,126,420
101,416,126,412
103,420,128,424
105,416,128,424
107,412,129,404
118,420,127,416
135,416,126,424
153,420,126,416
160,412,126,412
153,416,126,416
145,420,127,420
143,420,128,420
143,408,128,412
143,420,128,416
145,420,128,420
147,420,129,420
149,408,130,412
150,420,131,412
151,420,132,424
151,416,132,420
150,412,131,408
150,420,129,416
147,416,128,424
147,420,128,416
149,412,128,412
150,416,127,416
149,416,126,420
150,420,126,416
147,420,126,416
144,412,126,416
141,420,127,420
137,412,127,412
138,420,127,420
137,424,126,412
137,412,126,424
139,416,127,420
143,412,128,408
147,420,128,416
147,416,128,424
143,420,128,416
136,412,127,412
129,416,127,416
126,420,127,424
126,420,127,416
126,408,127,412
126,420,127,416
125,420,128,420
126,420,130,420
127,408,131,408
128,420,130,416
129,420,128,424
131,416,127,420
134,412,126,408
135,420,125,416
136,416,126,424
140,420,126,412
142,412,126,416
140,420,125,416
136,412,126,420
131,420,126,416
127,420,127,416
125,412,128,416
128,420,129,420
131,420,128,420
134,408,128,408
135,420,127,416
135,420,126,424
135,416,126,420
135,412,126,408
133,420,128,416
131,416,128,424
128,420,129,416
125,412,129,412
123,416,129,416
121,420,128,420
118,420,127,420
119,408,126,412
116,420,124,416
115,420,123,420
113,416,123,420
113,412,123,412
115,420,123,412
112,420,122,420
108,412,121,416
103,420,121,420
100,412,122,412
101,420,124,424
103,420,126,412
105,412,128,416
110,420,129,416
115,412,129,420
120,420,128,416
126,420,127,420
129,416,126,412
128,416,124,420
128,420,123,420
127,408,123,408
124,420,124,416
121,420,125,424
120,416,126,420
120,412,125,408
120,420,125,416
122,416,125,424
125,420,125,416
127,412,125,412
126,416,125,416
125,420,126,424
128,420,128,416
135,408,129,412
143,420,129,416
148,420,130,420
145,420,131,420
140,408,131,408
135,420,131,416
128,420,130,420
121,412,130,416
118,420,130,420
114,412,130,412
112,420,130,424
112,424,130,412
112,408,130,416
112,420,131,416
110,416,131,420
109,420,131,420
109,408,131,412
110,420,131,416
115,420,131,420
114,420,131,420
115,416,129,408
116,412,127,416
121,420,127,424
127,416,127,420
134,412,127,408
140,420,127,416
146,416,128,424
148,420,128,416
146,412,129,412
143,416,130,416
142,420,131,420
142,412,132,416
142,420,132,416
139,420,131,416
134,416,130,420
124,420,128,420
115,408,126,408
113,420,125,416
115,420,124,420
117,412,124,416
120,420,125,420
127,420,126,412
141,412,128,424
152,420,130,416
155,412,130,412
148,416,130,416
134,420,130,424
122,420,129,416
120,408,129,412
121,420,127,416
126,420,126,420
131,420,123,420
129,408,122,408
124,420,122,416
123,420,123,424
126,416,123,420
130,412,123,408
135,420,123,416
138,416,122,424
138,420,121,416
138,420,122,412
138,408,123,416
136,420,123,424
133,412,121,412
132,420,120,420
131,420,120,412
131,416,119,420
128,420,118,428
128,408,116,400
129,420,116,416
131,420,117,424
131,416,120,420
132,412,123,408
133,420,126,416
135,416,128,424
139,420,130,416
142,412,131,412
143,416,132,416
143,420,133,424
141,420,133,416
139,408,132,412
137,420,132,416
137,420,133,420
137,416,134,420
138,412,135,408
138,420,135,416
138,420,136,424
135,416,137,420
134,412,137,408
132,420,136,416
132,412,137,420
132,420,136,416
129,420,135,416
127,412,132,416
124,420,131,420
121,412,129,416
120,420,129,416
121,424,129,416
125,412,130,420
124,420,130,420
121,408,131,412
120,420,132,412
123,420,132,424
126,416,132,420
131,412,132,408
133,420,130,416
135,416,129,424
133,420,129,416
131,412,128,412
128,416,127,416
124,420,126,424
121,420,125,416
119,408,124,412
119,420,123,416
120,420,122,420
120,420,121,420
122,408,121,408
126,420,122,416
130,420,123,424
131,416,123,412
128,412,122,420
126,420,121,412
124,412,121,420
123,420,121,416
124,420,123,416
126,412,124,416
129,420,124,424
131,420,125,416
133,408,125,412
133,420,124,416
134,420,125,420
137,420,126,420
140,408,128,408
143,420,131,416
145,420,133,424
145,416,134,420
143,412,133,408
140,420,132,416
138,416,130,424
137,420,129,416
137,412,128,412
135,416,127,416
134,420,127,420
133,420,127,420
132,408,128,412
130,420,127,416
127,420,127,416
123,412,127,420
119,420,127,416
115,412,127,412
113,424,128,424
113,416,129,412
117,412,132,420
120,420,134,412
122,412,134,420
121,420,134,416
122,420,134,420
123,420,133,412
123,412,132,420
123,420,131,420
123,408,130,412
123,420,129,416
123,420,129,420
125,420,129,420
127,408,128,412
128,420,127,412
129,416,126,424
128,420,126,420
128,412,125,408
128,420,125,416
129,416,125,424
128,420,124,416
124,420,123,412
120,408,121,416
116,420,120,424
111,420,120,416
104,408,120,412
100,420,121,416
101,420,121,416
106,412,119,420
111,420,117,416
114,412,114,412
118,424,113,424
123,420,115,412
129,408,117,420
135,420,117,412
137,416,115,424
135,420,113,420
131,412,112,408
125,416,113,416
124,420,113,420
128,420,114,420
131,408,113,412
133,420,113,416
135,420,117,420
134,420,120,420
132,408,124,408
130,420,126,416
128,416,127,424
129,420,126,420
129,412,123,408
129,420,119,416
127,416,116,424
122,416,117,412
118,416,120,420
116,420,123,412
117,416,126,420
120,420,129,420
121,408,131,412
122,420,133,416
121,420,136,416
120,412,137,420
120,420,138,416
118,420,136,412
115,416,133,424
111,416,131,420
107,412,131,408
100,420,131,416
91,416,131,424
83,420,131,420
80,412,130,408
81,416,130,416
85,420,131,424
88,420,132,416
89,408,134,412
89,420,134,416
94,420,137,420
102,420,139,420
114,408,139,408
126,420,136,416
134,416,134,424
139,420,134,420
137,412,133,416
137,416,134,408
151,420,136,424
170,416,138,412
182,416,140,420
184,420,140,412
183,416,141,420
178,420,142,428
171,408,141,404
163,420,139,416
156,420,137,420
150,416,136,420
145,420,135,408
145,412,135,416
147,420,134,424
147,416,133,420
147,412,133,408
144,420,133,416
139,416,132,424
132,420,131,420
128,412,131,408
127,416,131,416
128,420,131,424
130,420,131,416
134,408,131,412
137,420,130,416
140,420,129,420
138,420,128,420
129,408,128,408
119,420,127,416
113,416,127,420
109,416,127,420
105,420,127,412
99,412,128,416
92,420,127,424
89,416,127,412
92,416,126,420
95,424,126,412
100,412,128,424
105,420,129,416
107,408,130,412
108,420,129,416
109,420,129,420
112,416,129,420
122,412,128,408
136,420,128,416
148,420,129,424
157,416,129,420
160,412,131,408
159,420,132,416
155,416,132,424
153,420,131,420
153,412,129,408
155,416,128,416
156,420,128,424
155,420,129,416
153,408,128,412
149,420,127,416
143,420,126,420
136,420,124,412
131,408,123,420
127,420,122,412
124,416,121,420
120,416,121,420
118,428,120,412
117,404,120,416
118,420,119,424
118,420,118,416
119,412,117,412
119,416,116,416
119,420,115,424
118,420,115,416
117,408,115,412
112,420,115,416
106,420,115,420
100,420,115,420
96,408,114,408
93,420,114,416
93,420,114,424
96,416,115,420
101,412,116,408
105,420,118,416
107,416,118,424
107,420,118,416
106,412,118,412
106,416,118,416
109,420,120,416
112,416,123,420
116,416,124,420
120,416,123,412
123,420,121,420
124,420,120,412
127,408,119,420
132,420,118,420
138,416,119,412
142,416,121,420
139,420,121,416
135,420,121,412
131,412,121,424
129,420,119,416
127,412,118,412
129,416,117,416
131,420,118,420
131,420,117,420
129,408,117,412
130,420,118,416
134,420,120,420
137,416,121,420
142,412,121,412
145,420,122,412
149,420,124,424
151,416,124,420
151,412,124,408
151,420,124,416
152,416,126,424
154,420,128,420
156,412,126,408
155,416,125,416
156,420,128,416
159,416,132,420
158,416,135,420
152,416,135,412
143,420,137,420
137,420,139,412
134,408,142,420
132,420,144,412
127,420,144,424
120,416,143,420
115,412,144,408
112,420,144,416
109,416,143,424
105,420,142,416
100,412,140,412
94,416,140,416
91,420,139,424
90,420,137,416
92,408,134,412
96,420,131,416
99,420,130,420
99,416,128,420
103,412,128,408
113,420,129,416
125,420,130,424
135,412,128,412
141,420,128,420
144,416,128,412
144,416,131,424
143,420,134,420
142,412,136,408
141,416,137,416
143,420,139,416
147,416,141,420
148,416,141,420
149,420,142,412
150,416,142,420
145,420,140,420
140,408,138,412
136,420,136,412
131,420,134,424
128,416,131,420
127,412,128,408
125,420,124,416
124,416,121,424
124,420,119,416
127,420,119,412
133,408,118,416
137,420,116,424
139,420,116,416
135,408,117,412
128,420,120,416
124,420,123,420
121,416,125,420
121,420,127,408
121,412,127,416
124,420,127,424
127,412,126,412
131,420,125,420
132,416,123,412
133,416,120,424
134,420,120,424
135,412,120,404
134,416,122,416
132,420,124,420
129,420,127,420
128,408,131,412
128,420,135,416
127,420,135,420
120,416,134,420
112,420,133,408
103,412,133,416
100,420,133,424
100,416,133,420
104,412,132,408
105,420,129,416
102,416,126,424
98,420,122,416
96,412,120,412
95,416,117,416
94,420,116,420
97,420,115,420
103,408,116,412
107,420,118,416
111,416,119,416
115,420,122,420
117,416,123,412
118,416,123,416
122,420,123,424
128,412,123,412
132,420,122,420
135,420,121,412
141,412,121,424
148,420,122,416
153,412,123,412
153,416,124,416
150,420,123,420
144,420,122,420
139,408,121,412
134,420,118,416
130,420,115,420
129,420,113,420
133,408,113,412
137,420,113,412
140,420,112,424
139,416,110,420
134,412,107,408
127,420,104,416
122,416,102,424
120,420,101,416
119,412,103,412
118,416,105,416
113,420,106,420
109,420,105,412
108,412,105,420
106,416,108,416
107,416,114,416
107,420,121,420
107,424,129,412
108,408,134,416
110,420,135,424
107,416,134,420
106,412,134,408
108,420,132,416
111,416,128,424
114,420,126,416
121,412,125,412
131,416,126,416
142,420,127,420
156,420,125,420
167,408,123,412
172,420,120,416
169,420,119,420
164,420,118,420
158,408,118,408
148,420,117,416
136,420,118,424
128,416,121,420
124,412,126,408
119,420,131,416
114,416,137,416
110,416,141,420
107,416,144,420
99,416,143,412
94,420,144,424
94,420,144,408
96,412,143,420
100,416,141,420
103,416,140,412
108,420,137,420
116,420,134,420
126,416,131,408
135,416,131,424
142,416,132,420
145,412,134,408
144,420,134,416
143,416,135,424
142,420,136,416
142,412,138,412
141,416,140,416
139,420,141,420
138,420,141,420
135,408,141,412
132,420,142,416
130,420,143,420
127,420,142,420
124,408,135,408
121,420,126,416
120,420,119,424
120,416,116,420
123,412,117,408
130,420,120,416
136,416,123,416
137,416,127,420
138,416,127,420
137,416,124,412
139,420,122,424
143,420,120,416
144,408,118,412
142,420,117,416
137,420,118,420
126,420,119,420
116,408,122,408
113,420,126,416
113,420,131,424
116,416,137,412
119,412,141,420
121,420,143,412
122,416,144,424
123,420,143,416
123,412,139,412
118,416,133,416
112,420,129,420
111,420,128,420
110,408,129,412
102,420,131,416
100,420,133,420
103,412,132,416
102,420,134,416
99,416,136,412
98,420,137,424
99,416,136,420
99,412,132,408
100,420,129,416
101,424,128,416
100,408,128,420
105,420,129,420
113,416,128,412
124,416,129,424
134,420,135,416
147,408,136,412
158,420,129,416
163,420,127,420
163,416,126,420
159,412,126,412
154,420,127,412
147,420,126,424
143,416,125,420
138,412,124,408
134,420,125,416
127,416,129,424
115,420,133,416
104,412,137,412
102,416,140,416
98,420,141,420
95,420,140,420
94,420,138,412
93,408,136,416
89,420,133,420
87,412,130,416
85,420,127,416
84,416,124,412
82,420,120,424
84,416,119,424
89,412,118,404
99,420,117,416
112,416,116,424
128,420,115,416
139,412,114,412
139,416,114,416
134,420,115,424
126,420,118,416
122,408,119,412
119,420,120,416
119,420,120,420
121,420,126,420
121,408,135,408
120,420,145,416
119,420,152,424
119,416,156,420
120,412,154,408
123,420,150,416
122,416,143,424
117,420,134,416
110,412,125,412
102,416,119,416
95,416,113,420
95,420,112,416
119,420,115,416
151,412,119,416
180,420,124,420
190,412,128,412
185,420,129,420
174,420,132,412
166,416,133,424
157,416,132,420
148,412,133,408
139,420,133,416
133,416,132,424
127,420,128,416
127,412,124,412
138,416,122,416
151,420,123,420
160,420,126,420
170,408,127,412
178,420,126,416
190,420,129,420
199,416,127,420
201,412,118,412
195,420,114,412
188,420,115,424
184,416,121,420
178,412,129,408
172,416,134,416
161,420,132,424
147,420,129,412
134,412,129,416
123,420,130,416
108,412,128,420
98,420,125,416
93,424,123,416
94,408,122,416
96,420,121,420
96,420,123,420
94,408,125,408
90,420,126,416
86,420,127,424
87,416,136,420
86,412,143,408
85,420,143,416
91,416,131,424
103,420,126,416
115,412,122,412
134,416,121,416
153,420,123,420
162,420,125,420
169,408,128,412
172,420,125,416
169,420,121,420
159,420,120,420
141,408,118,412
124,420,119,412
112,420,120,420
99,412,120,416
96,420,121,420
97,412,126,412
103,420,132,424
105,420,133,412
105,412,129,416
108,420,127,420
115,420,127,412
121,408,131,420
124,420,134,420
134,420,131,412
150,416,125,420
165,420,122,420
170,416,122,408
167,412,124,416
167,420,122,424
172,416,119,420
180,412,117,408
185,420,114,416
191,416,112,424
193,420,109,416
182,412,108,412
157,416,112,416
135,420,114,420
119,420,115,420
111,408,117,412
107,420,120,416
105,420,121,420
105,420,123,420
107,408,124,408
109,420,124,416
108,420,122,420
108,412,120,416
108,420,119,420
110,412,117,412
115,420,115,424
125,420,119,416
132,412,123,412
128,416,127,416
124,420,134,424
126,420,138,416
128,408,140,412
126,420,142,416
123,420,142,420
119,420,143,420
122,408,143,412
125,420,143,412
121,420,141,424
117,416,138,420
116,412,138,408
117,420,142,416
120,416,143,424
122,420,142,416
124,420,142,412
123,408,143,416
129,420,143,424
137,412,142,412
134,420,139,420
126,420,136,412
127,416,137,420
135,420,138,420
139,408,137,408
134,420,134,416
115,424,131,420
100,408,129,416
94,420,129,420
92,416,130,412
88,416,129,424
77,420,126,416
65,412,122,412
52,416,118,416
50,420,115,424
62,420,113,416
73,408,114,412
83,420,116,416
97,420,117,420
110,416,117,420
116,412,115,408
119,420,112,416
121,420,111,424
124,416,111,420
134,412,112,408
149,420,114,416
162,416,115,424
167,420,115,416
168,420,117,412
168,408,120,416
169,420,126,420
171,412,134,416
176,420,139,416
182,420,134,416
184,416,133,420
184,420,136,424
179,408,137,404
169,420,136,416
153,420,135,424
144,416,137,420
144,412,139,408
151,420,136,416
160,416,134,424
164,420,132,416
164,412,131,412
163,416,133,416
162,420,134,424
162,420,136,416
162,408,139,412
164,420,141,416
166,420,140,420
165,416,138,420
164,412,138,408
161,420,137,416
158,420,135,424
159,416,132,412
164,412,129,420
173,420,128,412
185,412,129,420
192,420,130,416
194,420,131,416
197,412,132,416
203,420,134,420
205,412,132,416
201,420,129,420
191,420,126,412
177,416,123,420
161,416,121,420
143,420,119,408
130,412,115,416
125,420,112,424
123,416,112,420
121,412,114,408
118,420,115,416
115,416,115,424
112,420,116,416
109,412,116,412
106,416,115,416
103,420,114,420
98,420,112,420
88,408,110,412
82,420,110,416
83,420,110,420
86,420,109,420
88,408,108,408
87,416,105,416
88,424,102,424
91,416,98,412
89,412,97,420
94,420,97,412
105,412,98,420
118,420,96,416
127,424,92,416
132,408,89,416
137,420,90,420
140,420,89,420
131,408,87,412
122,420,83,416
118,420,85,420
119,420,90,420
120,408,96,412
118,420,104,412
116,416,115,424
118,420,123,420
123,412,128,408
130,420,131,416
140,416,134,424
145,420,132,416
144,420,127,412
140,408,124,416
135,420,124,424
136,420,127,416
135,408,131,412
133,420,132,416
128,420,134,416
121,412,137,420
116,420,139,416
115,412,144,412
117,424,153,424
126,416,162,412
134,412,169,420
142,420,179,416
153,420,190,420
165,412,197,412
171,416,197,416
172,420,193,416
171,416,188,420
169,420,183,420
168,408,180,412
166,420,172,416
160,420,161,420
154,420,152,420
147,408,143,408
141,420,140,416
137,416,144,424
134,420,145,420
135,412,138,408
135,420,133,416
133,416,126,424
128,420,120,416
121,412,115,412
116,416,108,416
113,420,103,420
110,420,99,420
105,408,97,412
102,420,95,416
99,420,89,416
94,412,77,420
89,420,65,416
86,412,58,412
84,424,61,424
85,416,62,420
90,412,60,408
93,420,57,416
92,416,55,424
90,420,55,420
93,412,57,408
97,416,64,416
96,420,78,424
96,420,87,416
102,408,91,412
112,420,105,416
117,420,121,420
113,420,129,420
98,408,129,408
83,420,126,416
75,420,123,424
71,416,120,420
64,412,118,408
61,420,118,416
60,416,119,424
61,416,121,412
63,416,125,420
71,420,131,412
85,416,139,424
100,420,148,416
110,408,158,412
110,420,169,416
111,424,177,416
115,408,182,420
123,420,183,416
131,420,183,412
125,416,192,424
121,416,193,420
132,412,190,408
147,420,182,416
154,416,173,424
151,420,159,420
145,412,144,408
138,416,142,416
129,420,139,424
126,420,134,416
126,408,128,412
125,420,128,416
127,420,131,420
130,420,131,420
135,408,120,412
141,420,116,412
147,420,115,424
153,416,118,420
159,420,122,408
165,408,126,416
164,420,130,424
162,416,133,412
159,416,134,420
157,420,131,412
155,416,126,424
152,420,123,420
155,408,123,408
163,420,123,416
166,420,121,420
165,416,119,420
161,412,119,408
156,420,115,416
151,420,110,424
145,416,105,420
138,412,104,408
131,420,110,416
130,416,112,424
129,420,113,420
124,412,113,408
119,416,113,416
118,420,113,424
120,420,113,416
123,408,116,412
125,420,116,416
121,420,109,420
113,420,96,412
103,408,83,420
96,420,79,412
96,416,83,420
102,416,90,420
106,420,94,412
110,412,95,416
111,420,97,424
107,416,102,412
101,416,105,420
92,420,108,412
90,416,110,424
90,420,113,416
93,408,116,412
97,420,121,416
98,420,122,420
99,420,121,420
104,408,123,408
113,420,123,416
121,420,126,424
131,416,128,420
142,412,130,408
152,420,133,416
162,416,137,424
169,420,138,420
168,412,136,408
164,416,135,416
163,420,137,424
163,420,145,416
163,408,151,412
159,420,153,416
157,420,154,420
158,420,151,412
160,408,152,420
160,420,150,412
159,416,154,420
162,420,161,420
169,424,163,412
177,404,157,416
182,420,147,424
184,420,143,416
185,412,140,412
181,416,132,416
169,420,123,420
155,420,119,420
142,408,126,412
134,420,133,416
133,420,135,420
134,420,136,420
134,408,139,412
131,420,142,412
128,420,142,424
125,416,145,420
120,412,151,408
113,420,160,416
108,416,166,424
104,420,168,416
103,412,167,412
102,416,161,416
103,420,150,416
103,412,140,420
102,420,131,420
101,416,121,412
104,420,113,420
108,420,105,412
108,408,95,420
106,420,87,416
105,420,84,420
107,412,86,412
112,420,96,420
121,416,99,412
129,416,102,424
131,420,105,416
127,412,110,412
121,416,114,416
117,420,115,424
113,420,117,416
110,408,120,412
105,420,123,416
100,420,129,420
93,416,131,420
89,412,131,408
94,420,123,416
104,420,116,424
113,416,108,420
120,412,105,408
127,420,103,416
136,416,105,424
139,420,109,420
141,412,115,408
143,416,123,416
145,420,128,416
145,416,131,420
147,416,132,420
147,416,136,412
150,420,138,420
147,420,135,420
139,408,131,412
132,420,131,412
127,420,135,424
122,416,140,420
121,412,151,408
120,420,165,416
120,416,176,424
127,420,182,416
135,420,189,412
139,408,197,416
134,420,202,424
121,420,203,416
115,408,199,412
116,420,192,416
121,420,184,420
127,416,178,420
134,412,176,408
138,420,171,416
138,420,161,424
137,412,152,412
139,420,143,420
142,416,136,412
143,416,135,424
140,420,136,420
141,412,135,408
142,416,134,416
143,428,135,416
143,408,138,420
141,416,140,420
139,420,141,412
135,416,140,420
134,420,141,420
135,408,145,408
131,420,144,416
126,420,144,424
117,416,144,420
110,412,142,408
103,420,134,416
98,416,124,424
95,420,117,416
93,412,112,412
88,416,108,416
82,420,105,424
81,420,102,416
89,408,99,412
97,420,97,416
106,420,101,420
112,420,105,420
113,416,109,408
110,412,109,416
105,420,104,424
105,412,94,412
106,420,82,420
107,416,71,412
108,416,65,424
111,420,64,420
115,412,68,408
122,416,79,416
127,420,93,420
128,420,101,420
127,408,106,412
125,420,111,416
119,420,116,420
116,420,120,420
112,408,120,408
108,420,120,416
104,420,120,424
107,416,119,420
117,412,116,408
132,420,107,416
146,416,90,424
155,420,74,416
156,412,60,412
150,416,50,416
147,420,48,420
146,420,51,412
145,412,54,420
145,416,64,416
142,416,79,416
137,420,90,420
132,416,102,412
135,416,112,416
137,420,115,424
132,412,112,412
121,420,102,420
112,416,87,412
105,416,75,424
98,420,71,416
97,412,78,412
100,416,89,416
100,420,98,420
99,420,105,420
96,408,108,412
94,420,119,416
97,420,134,420
103,420,150,420
110,408,162,408
115,420,173,416
126,420,183,424
139,416,191,420
154,412,197,408
161,420,198,416
162,416,193,424
157,420,189,420
153,412,185,408
153,424,180,416
156,412,173,424
157,420,163,408
159,412,163,420
161,416,163,416
162,416,166,416
163,420,169,420
169,424,167,412
174,408,161,416
177,420,161,424
180,416,163,412
180,412,162,420
177,420,156,412
169,416,155,424
161,420,155,416
153,412,154,412
147,416,148,416
145,420,148,420
143,420,151,420
143,408,155,412
144,420,158,416
141,420,162,420
135,420,166,420
131,408,173,412
129,420,175,412
128,420,176,424
127,416,177,420
126,412,177,408
125,420,173,416
124,416,168,416
120,416,165,420
115,416,163,420
112,416,164,412
113,420,168,420
115,420,173,412
118,412,177,420
125,420,178,416
131,416,175,420
134,420,169,420
132,408,160,412
131,420,147,412
129,420,134,424
123,416,127,420
115,412,121,408
107,420,117,416
100,416,115,424
96,420,115,416
94,412,116,412
90,416,115,416
89,420,112,420
92,420,106,420
97,408,100,412
105,420,92,416
115,420,87,420
123,420,86,420
128,408,85,408
130,420,87,416
135,420,90,424
137,416,95,420
143,412,102,408
152,420,112,416
164,416,123,416
168,416,127,420
163,416,131,420
159,416,136,412
156,420,138,424
151,420,135,416
143,408,130,412
135,420,126,416
132,420,124,420
134,420,124,420
132,408,124,408
125,420,125,416
125,420,127,424
122,416,127,420
116,412,124,408
107,420,119,416
97,416,116,424
97,420,116,416
105,412,119,412
115,416,122,416
120,420,123,420
120,420,120,420
115,408,115,412
106,420,106,416
97,420,95,420
89,412,84,412
87,420,78,420
86,416,76,412
86,420,74,424
86,416,69,420
86,412,63,408
92,420,62,416
101,424,66,416
110,408,72,420
120,416,79,420
126,420,86,412
128,416,89,420
131,420,91,420
136,408,94,412
139,420,96,416
135,420,99,420
133,420,105,420
133,408,112,408
129,420,117,416
129,420,123,424
133,416,129,420
135,412,132,408
136,420,135,416
135,416,138,424
136,420,141,416
139,412,143,412
145,416,147,416
154,420,150,420
156,420,150,420
154,416,150,412
148,412,152,416
143,420,153,420
143,412,154,412
147,420,160,420
143,416,161,412
136,420,160,424
129,416,156,420
123,412,153,408
122,420,152,416
117,416,150,424
115,420,151,416
113,412,151,412
113,416,148,416
113,420,146,420
119,420,146,420
129,408,144,412
136,420,133,416
131,420,112,420
118,420,88,420
110,408,67,408
103,420,46,416
95,420,31,424
86,416,30,420
87,412,39,408
94,420,44,416
103,416,47,424
111,420,50,412
115,412,53,416
117,420,54,416
121,412,59,416
126,420,70,420
129,420,82,416
129,412,90,416
136,420,96,420
143,412,95,416
143,420,95,416
137,420,105,412
134,416,124,424
128,416,144,420
123,412,159,408
121,420,169,416
124,416,179,424
129,420,193,416
131,412,206,412
134,416,213,416
136,420,215,420
136,420,212,420
139,408,202,412
142,420,190,416
141,420,178,420
139,420,169,420
137,408,166,412
142,420,161,412
147,420,161,424
150,416,165,420
151,412,167,408
154,416,172,416
155,420,170,424
150,420,161,412
145,412,170,416
142,420,179,416
136,412,176,420
129,420,168,416
120,424,159,416
107,408,149,416
99,420,140,420
94,420,131,420
88,408,121,408
88,420,109,416
100,420,99,424
118,416,93,420
131,412,96,408
143,420,100,416
154,416,106,424
160,420,112,416
159,412,111,412
156,416,108,416
153,420,109,424
151,420,119,416
147,408,127,412
146,420,136,416
148,420,142,420
145,420,147,420
143,408,152,408
142,420,156,416
136,420,158,420
129,412,156,416
123,420,158,420
121,412,163,412
120,420,168,424
124,420,174,412
124,412,172,416
120,420,167,416
118,416,162,420
111,420,156,420
106,408,152,412
106,420,150,416
111,420,145,420
114,420,140,420
114,408,135,408
110,420,127,416
113,420,121,424
123,416,117,420
129,412,113,408
135,420,109,416
140,416,106,424
145,420,109,416
153,412,114,412
162,416,118,416
167,420,121,424
169,420,122,416
167,408,123,412
159,420,123,416
150,420,122,420
142,420,120,420
138,408,119,408
134,420,115,416
128,420,112,420
118,412,110,416
115,420,108,420
114,412,108,412
108,420,110,424
104,420,112,416
103,412,112,412
103,416,114,416
103,420,121,420
97,420,124,420
87,408,126,412
83,420,127,416
85,420,129,420
89,420,126,420
89,408,123,408
91,420,123,416
99,420,129,424
115,416,134,420
131,412,137,408
137,420,132,416
145,416,125,424
151,420,118,416
149,412,112,412
145,416,107,416
144,420,105,420
149,412,107,416
158,420,112,420
168,420,118,412
175,416,121,420
173,420,122,420
167,408,125,412
159,420,123,412
150,424,122,420
140,408,122,416
130,420,120,420
119,420,116,412
112,412,112,424
103,420,112,416
103,420,122,412
107,408,127,416
108,420,126,424
110,420,129,416
111,408,135,412
115,420,140,416
117,420,142,420
119,420,144,420
123,408,145,408
124,420,144,416
123,420,142,424
122,416,137,420
118,412,132,408
111,420,126,416
107,416,120,424
105,420,120,416
108,420,124,412
108,408,126,416
111,420,128,420
113,412,131,416
113,420,134,420
112,420,134,412
109,416,134,420
106,416,132,420
100,412,131,412
100,420,130,412
108,420,126,424
113,416,118,420
116,412,110,408
119,420,102,416
120,416,94,424
120,420,87,416
121,412,83,412
119,416,84,416
114,420,89,420
112,420,96,420
107,408,100,412
101,420,102,416
100,420,107,420
97,420,112,420
98,408,119,408
101,420,115,416
104,420,115,424
106,416,116,412
106,412,122,420
100,420,129,412
98,412,137,420
96,420,138,416
95,420,135,416
94,412,128,416
94,420,118,428
102,412,111,408
112,420,109,420
123,420,117,412
134,416,124,420
145,420,125,420
147,408,124,412
142,420,124,412
134,416,124,424
129,420,128,420
129,412,137,408
131,420,152,416
138,416,168,424
151,420,181,416
166,412,186,412
176,416,189,416
183,420,187,420
187,420,177,420
187,408,163,412
184,420,147,416
178,420,132,420
171,420,119,420
165,416,112,408
159,416,110,416
156,416,107,424
147,416,103,412
135,412,102,420
123,420,105,412
117,412,112,420
119,420,120,416
121,424,118,416
121,408,113,416
121,420,111,420
120,420,108,420
122,408,113,412
125,420,121,416
127,420,122,420
123,420,115,420
113,408,113,408
110,420,115,416
115,420,120,424
125,416,126,420
129,412,137,408
127,420,147,416
129,416,156,424
138,420,162,416
141,412,167,412
147,416,170,416
151,420,169,424
153,420,164,416
156,408,161,412
160,420,163,416
164,420,163,416
165,412,154,420
160,420,145,416
150,412,137,412
140,424,136,424
135,416,141,412
134,412,151,420
129,420,155,412
120,416,152,424
113,420,145,420
113,412,140,408
119,416,138,416
129,420,140,424
143,420,140,416
155,408,140,412
161,420,139,416
162,420,137,420
158,420,135,420
151,408,134,408
150,420,133,416
152,420,134,424
156,416,135,420
159,412,141,408
162,420,143,416
164,416,141,424
159,420,136,416
153,412,133,412
143,416,130,416
140,420,129,424
142,420,131,416
141,408,134,412
132,420,136,416
124,420,136,416
124,412,135,420
124,420,135,416
127,412,134,412
129,424,134,424
130,416,131,420
134,412,129,408
140,420,126,416
145,416,120,424
144,420,115,416
136,412,110,412
130,416,106,416
124,420,104,424
121,420,104,408
122,412,106,420
123,416,111,416
123,420,115,420
123,420,116,420
118,408,115,408
108,420,113,416
97,416,111,424
86,420,108,420
76,412,107,408
68,420,106,416
63,416,104,424
63,416,103,412
71,416,106,420
84,420,109,412
100,416,111,420
112,420,112,420
121,408,114,412
129,420,116,416
136,428,115,416
142,404,115,420
150,420,120,416
163,416,126,412
174,420,132,424
178,416,134,420
177,412,131,408
175,420,128,416
169,416,122,424
160,420,114,416
155,412,108,412
147,416,103,416
138,420,99,424
130,420,96,416
124,408,95,412
119,420,93,416
115,420,92,420
110,420,95,420
103,408,103,408
96,420,106,416
92,416,108,420
89,416,111,420
89,420,112,412
86,412,107,416
82,420,104,424
79,416,105,412
75,416,110,420
70,420,112,412
67,416,118,424
70,420,128,416
75,408,135,412
82,420,142,416
87,420,142,420
88,416,140,420
92,412,139,408
102,420,137,416
114,420,135,424
120,416,132,420
119,412,128,408
113,420,130,416
112,416,139,424
119,420,145,420
124,412,145,408
126,416,150,416
134,420,160,424
145,420,170,416
158,408,173,412
161,420,172,416
163,420,172,420
164,416,170,412
167,412,162,420
171,420,155,412
174,416,152,420
178,416,150,420
182,420,147,412
185,412,139,416
185,420,127,428
184,416,115,408
184,416,105,420
184,420,101,412
183,416,101,420
180,420,106,420
175,408,116,412
165,420,114,416
152,420,108,420
145,416,104,420
137,412,106,408
129,420,109,416
123,420,113,424
120,416,115,420
117,412,117,408
112,420,117,416
108,416,121,424
108,420,128,416
110,412,135,412
107,416,143,416
103,420,139,420
104,420,134,420
107,408,127,412
106,420,120,416
109,420,118,420
115,420,119,412
124,408,121,420
133,420,126,412
137,416,131,420
140,416,135,420
141,428,137,412
139,404,140,416
138,420,138,424
138,420,131,416
138,420,119,412
132,408,99,416
126,420,80,424
118,420,74,416
112,408,81,412
101,420,95,416
91,420,113,420
85,416,128,420
84,412,133,408
88,420,137,416
89,420,142,424
92,416,147,420
96,412,149,408
100,420,150,416
107,416,155,424
110,420,154,420
110,412,156,408
109,416,157,416
109,420,159,416
119,416,163,420
143,416,172,420
166,416,179,412
177,420,179,420
177,420,175,412
172,408,171,420
166,420,162,412
158,420,153,424
154,416,149,420
155,412,146,408
159,420,148,416
162,416,151,424
159,420,143,420
153,412,132,408
151,416,131,416
157,420,135,424
169,420,137,416
183,408,139,412
189,420,139,416
187,420,137,420
177,416,134,420
167,412,132,408
156,420,132,416
144,420,134,424
138,416,135,420
137,412,136,408
138,420,135,416
142,416,135,424
144,420,136,420
143,412,137,408
140,416,134,416
136,420,129,416
131,412,124,420
128,420,120,424
121,416,117,408
116,420,115,420
115,420,119,420
120,408,126,412
122,420,130,412
118,420,130,424
110,416,128,420
104,412,128,408
100,420,131,416
97,416,133,424
95,420,130,416
90,412,126,412
83,416,124,416
77,420,125,424
75,420,128,416
72,408,125,412
71,420,120,416
76,420,118,420
89,420,117,420
105,408,119,408
116,420,114,416
121,420,110,424
124,412,107,412
125,420,106,420
126,416,103,412
131,416,98,424
139,420,99,416
147,412,103,412
158,416,107,416
172,428,111,416
185,408,116,420
187,416,121,420
177,420,124,412
161,416,127,420
148,420,130,420
143,408,131,408
137,420,127,416
132,420,123,424
129,416,120,420
128,412,117,408
119,420,118,416
101,416,124,424
79,420,130,416
64,412,134,412
55,416,133,416
57,420,131,420
67,420,132,420
83,408,135,412
100,420,140,416
112,416,143,416
115,420,140,420
110,416,135,412
103,416,128,416
100,420,120,424
100,412,117,412
108,420,118,420
122,416,118,412
140,416,118,424
157,420,116,420
166,412,114,408
169,416,112,416
168,420,110,420
166,420,108,420
163,408,108,412
157,420,110,416
147,420,111,420
136,420,112,420
127,408,116,408
120,420,120,416
116,420,123,424
118,416,126,420
125,412,128,408
128,420,124,416
120,416,119,424
110,420,112,416
102,412,103,412
96,416,95,416
94,420,90,424
98,420,87,408
105,412,94,420
114,416,103,416
127,416,111,416
143,420,115,420
158,416,118,412
170,416,120,416
176,420,123,432
181,412,121,404
185,420,122,420
185,416,125,412
175,416,127,424
162,420,129,416
154,412,131,412
144,416,130,416
135,420,130,420
131,420,134,420
131,408,135,412
130,420,139,416
132,420,143,420
134,420,144,420
135,408,144,408
136,420,143,416
133,420,144,424
132,416,144,420
133,412,144,408
132,420,144,416
129,416,145,424
125,420,144,420
121,412,142,408
118,424,142,416
116,412,142,424
111,420,142,408
102,412,139,420
88,416,131,416
79,416,124,416
77,420,124,420
79,424,127,412
83,408,123,416
90,420,116,424
97,416,113,412
105,412,115,420
118,420,120,412
136,416,123,424
152,420,117,416
159,412,105,412
158,416,96,416
159,420,97,420
168,420,106,420
185,408,116,412
199,420,125,416
208,420,135,420
208,420,144,420
201,408,151,412
197,420,153,412
185,420,150,424
173,416,153,420
168,412,159,408
165,420,160,416
159,416,156,416
152,416,154,420
146,420,147,420
137,412,140,412
129,420,136,424
117,420,132,408
107,412,129,420
98,420,125,416
95,416,123,420
96,416,124,420
96,412,124,412
92,420,126,412
89,420,131,424
90,416,139,420
91,412,143,408
84,420,145,416
74,416,145,424
63,420,145,416
56,412,150,412
52,416,157,416
54,420,163,420
57,420,162,420
60,408,154,412
71,420,147,416
89,420,143,420
108,420,135,420
123,408,126,408
139,420,113,416
157,420,103,424
172,416,102,420
185,412,105,408
198,420,111,416
209,416,120,416
215,416,126,420
209,416,128,424
198,416,131,408
192,420,134,424
187,420,135,416
179,408,135,412
169,420,135,416
161,420,134,420
152,420,134,420
142,408,135,408
132,420,135,416
125,420,132,424
118,416,128,420
112,412,126,408
108,420,122,416
106,416,120,424
108,420,119,416
108,412,116,412
104,416,114,416
98,420,113,420
96,420,116,420
96,408,125,412
99,420,132,416
101,420,134,420
101,412,131,412
100,420,130,420
101,416,129,412
101,420,127,424
96,416,126,420
92,412,124,408
88,420,119,416
91,424,118,416
103,408,118,420
116,416,119,420
126,420,118,412
132,416,115,420
135,420,112,420
134,408,111,412
132,420,112,416
131,420,113,420
129,420,115,420
131,408,118,408
134,420,119,416
133,420,120,424
130,416,121,420
124,412,124,408
118,420,126,416
110,416,125,424
104,420,121,416
106,412,120,412
114,416,120,416
123,416,118,416
133,420,118,420
138,420,124,416
132,412,129,416
121,420,134,420
110,412,137,412
105,420,138,420
110,416,138,412
122,420,138,424
136,416,135,420
150,412,134,408
161,420,135,416
171,416,137,424
176,420,141,416
177,420,143,412
172,408,142,416
166,420,141,424
162,420,140,416
156,408,135,412
150,420,131,416
143,420,126,420
135,420,121,420
122,408,119,408
111,420,119,416
106,420,122,424
110,416,124,420
118,412,127,408
121,420,125,416
118,416,121,424
111,420,121,412
104,412,121,416
97,420,116,416
91,412,110,420
94,420,105,416
106,420,105,416
121,412,110,416
134,420,118,428
137,412,119,404
132,420,116,420
120,416,110,412
111,420,104,424
108,416,101,420
111,412,101,408
118,420,97,416
119,416,90,424
122,420,86,420
135,412,90,408
152,416,99,416
166,420,111,424
175,420,120,416
175,408,123,412
170,420,121,416
164,420,121,420
157,420,124,420
152,408,127,408
151,420,127,416
149,420,128,424
140,416,124,420
127,412,120,408
116,416,113,416
112,420,110,424
113,420,113,412
119,412,119,416
123,420,125,416
127,412,134,420
129,420,141,416
133,424,146,416
140,408,147,416
147,420,145,420
151,420,145,420
147,408,145,408
137,420,150,416
128,420,155,424
118,416,158,420
113,412,162,408
118,420,164,416
123,416,159,424
126,420,153,416
125,412,153,412
119,416,155,416
114,420,155,424
111,420,152,416
106,408,145,412
101,420,139,416
101,420,138,420
115,420,140,420
133,408,142,408
145,420,143,416
158,420,147,420
169,412,151,416
179,420,152,420
183,412,147,412
179,420,138,424
164,420,122,412
144,412,98,416
125,420,79,416
113,416,65,424
110,420,58,416
112,408,60,412
118,420,66,416
121,420,73,420
115,420,81,420
108,408,90,408
110,420,99,416
115,420,105,424
115,416,111,420
116,412,119,408
119,420,120,416
120,416,117,424
117,420,119,416
109,412,125,412
96,416,132,416
90,420,142,420
93,420,151,420
99,408,159,412
105,420,169,416
116,420,183,420
133,416,192,420
148,412,192,412
162,420,187,412
169,420,176,420
163,412,162,416
152,420,149,428
147,412,144,404
151,420,143,424
155,420,140,416
159,412,138,412
157,416,137,416
153,420,141,420
146,420,145,420
137,408,147,412
127,420,147,416
123,420,147,420
124,420,147,420
127,408,147,408
131,420,148,416
134,420,147,424
134,416,143,420
134,412,137,408
134,420,130,416
129,416,126,424
124,420,123,416
122,412,120,412
124,416,119,416
126,420,119,420
121,412,121,416
114,420,123,420
108,420,121,412
103,416,117,420
101,420,113,420
97,408,110,408
95,420,108,416
96,424,110,420
100,408,114,416
110,420,118,420
120,416,116,412
128,416,115,424
138,420,115,416
147,412,114,412
152,416,113,416
156,420,118,420
161,420,125,420
164,408,134,412
165,420,141,416
164,420,147,420
159,420,150,420
151,416,150,408
143,412,149,416
140,420,147,424
137,416,143,420
133,412,137,408
128,420,133,416
123,412,130,420
121,420,128,416
120,420,126,416
118,412,123,416
116,420,122,420
118,412,122,416
122,420,122,416
123,420,121,416
119,416,120,420
112,420,117,420
105,408,114,408
102,420,111,416
97,420,107,424
91,416,103,420
85,412,103,408
79,420,105,416
73,416,108,424
65,420,112,416
58,412,119,412
55,416,123,416
54,420,124,424
63,420,126,416
81,408,127,412
108,420,128,416
134,420,129,420
148,416,128,420
151,412,125,408
147,420,122,416
146,420,121,424
148,416,122,412
156,412,125,420
159,420,128,412
160,412,129,420
159,420,128,416
156,420,125,416
149,412,121,416
143,420,119,428
143,412,118,408
147,420,119,416
153,420,120,416
160,416,125,420
159,420,132,420
152,408,136,412
143,420,136,412
131,420,135,424
121,416,134,420
121,412,133,408
126,420,133,416
132,416,135,424
134,420,139,416
131,412,140,412
121,416,134,416
112,420,126,424
106,420,123,416
104,408,120,412
103,420,114,416
106,420,109,420
119,420,103,420
135,408,97,408
147,424,94,416
153,416,92,424
152,416,91,412
145,412,91,420
138,420,90,412
140,412,92,420
147,420,95,416
156,424,100,416
166,408,110,416
174,420,122,424
173,420,131,408
165,412,137,420
156,416,139,416
154,420,141,420
157,420,144,420
160,408,145,408
159,420,144,416
158,420,140,424
154,416,135,420
147,412,133,408
135,420,131,416
121,416,128,424
112,420,128,416
108,412,129,412
102,416,128,416
96,420,129,420
96,420,132,420
101,408,134,412
103,420,137,416
105,420,143,416
105,412,153,420
104,420,166,416
104,412,166,412
106,424,157,424
110,424,147,412
111,404,137,420
108,420,132,412
112,416,131,424
121,420,129,416
134,412,128,412
151,416,129,416
163,420,130,424
164,420,131,416
152,408,131,412
135,420,132,416
118,420,134,420
102,420,135,420
88,408,136,408
73,420,135,416
69,416,131,424
76,420,130,420
87,412,129,408
96,420,128,416
99,416,124,424
95,420,119,416
88,412,122,412
90,416,127,416
107,420,133,424
125,420,134,416
136,408,132,412
142,420,133,416
148,420,136,416
165,412,142,420
184,420,145,424
195,412,143,404
198,424,138,424
196,416,132,420
195,412,130,408
195,420,130,416
187,416,128,424
174,420,126,420
162,412,124,408
152,416,121,416
145,420,120,424
140,420,120,416
138,408,120,412
133,420,118,416
120,420,114,420
107,416,112,420
99,420,110,408
99,412,112,416
108,420,116,424
117,416,120,420
123,412,121,408
128,420,123,416
129,416,124,424
129,416,129,412
125,416,134,420
116,420,136,412
108,416,135,420
106,420,132,420
110,408,130,412
115,420,128,416
120,424,128,416
123,408,130,420
121,420,131,416
114,420,129,412
106,416,128,424
99,416,126,420
97,412,126,408
98,420,127,416
108,416,128,424
122,420,132,416
131,412,143,412
132,416,148,416
132,420,145,420
131,420,140,420
127,408,135,412
124,420,133,416
125,420,131,420
127,420,131,420
132,408,135,412
138,420,138,412
140,416,142,420
139,416,145,420
135,420,147,412
131,412,143,416
131,420,137,424
137,416,134,412
143,416,131,416
153,420,128,416
161,416,123,424
163,420,122,416
161,408,123,412
156,420,121,416
149,420,120,420
139,416,120,420
129,412,118,408
118,420,115,416
105,420,112,424
95,416,110,420
94,412,109,408
104,420,109,416
121,416,107,424
134,420,102,420
132,412,97,408
121,416,92,416
107,420,86,424
95,420,83,416
90,408,85,412
93,420,91,416
105,420,98,420
111,420,104,412
111,408,110,420
112,420,113,412
121,416,122,420
131,416,134,420
143,420,144,412
152,412,151,416
157,420,151,428
150,416,147,408
133,416,143,420
121,420,142,412
120,416,145,424
124,420,152,416
132,408,160,412
142,420,166,416
150,420,166,420
149,416,158,420
143,412,144,408
131,420,131,416
123,420,120,424
118,416,110,420
118,412,105,408
124,420,105,416
130,416,107,424
138,420,112,420
145,412,114,408
145,416,110,416
141,420,103,424
137,420,101,416
133,408,102,412
131,420,103,416
130,420,106,420
128,420,111,412
127,408,119,420
124,420,125,412
120,416,129,420
116,416,131,420
113,424,130,412
109,408,128,416
106,420,127,424
106,420,126,416
108,412,124,412
111,416,121,416
113,420,115,424
112,420,112,416
118,408,113,412
126,420,116,416
131,420,119,420
129,420,119,420
127,408,118,408
126,420,112,416
123,420,110,424
120,416,112,420
118,412,114,408
120,420,116,416
124,416,118,424
127,420,119,416
131,412,119,412
144,416,123,416
156,420,129,416
157,416,133,420
150,416,137,420
144,416,138,412
136,420,139,420
121,424,140,412
115,404,138,420
120,420,140,412
131,420,149,424
136,416,158,420
134,412,161,408
132,420,161,416
129,416,156,424
121,420,150,416
113,412,147,412
106,416,147,416
101,420,144,420
103,420,139,420
110,408,135,412
121,420,133,416
129,420,133,420
129,420,133,420
125,408,132,412
126,420,127,412
129,420,122,424
134,416,122,420
145,412,126,408
155,420,131,416
156,416,135,424
157,420,136,416
158,412,136,412
157,416,132,416
161,420,130,416
160,412,129,420
154,420,128,424
149,416,125,408
149,420,124,420
150,420,126,420
156,408,135,408
167,420,141,416
179,420,144,424
182,416,144,420
175,412,143,408
174,420,140,416
173,416,135,424
168,420,132,416
158,412,127,412
143,416,121,416
131,420,118,424
123,420,115,416
119,408,118,412
117,420,123,416
116,420,123,420
113,420,121,420
109,408,120,408
109,420,120,416
108,420,118,424
108,412,117,412
108,420,120,420
102,416,124,412
91,416,126,424
77,420,130,420
74,412,134,408
76,416,140,416
81,424,147,416
84,408,152,420
84,420,158,420
86,420,163,412
89,416,164,420
93,420,161,420
97,408,151,412
103,420,141,412
116,420,136,424
131,416,134,420
145,412,128,408
156,420,122,416
166,416,116,424
170,420,111,416
169,420,105,412
168,408,96,416
168,420,91,424
167,420,93,416
157,408,97,412
146,420,100,416
137,416,103,416
129,420,105,420
121,416,112,412
119,416,119,416
116,420,128,424
113,412,135,412
108,420,138,420
100,424,139,412
90,408,139,424
80,420,140,416
72,412,144,412
69,416,149,416
70,420,153,420
77,420,157,420
88,408,160,412
99,420,162,416
105,420,159,420
109,420,152,420
108,408,141,408
105,420,131,416
107,420,120,424
112,416,113,420
124,412,112,408
136,420,115,416
152,416,115,424
159,420,112,416
164,412,108,412
166,416,105,416
170,420,104,420
175,420,103,412
175,412,103,420
175,416,106,416
175,416,110,416
169,420,110,420
164,416,109,412
156,416,108,416
149,420,108,432
143,412,108,404
143,420,108,420
140,416,108,412
137,416,111,424
137,420,117,416
135,412,126,412
131,416,135,416
122,420,142,420
121,420,148,420
127,408,151,412
134,420,150,416
133,420,145,420
131,420,139,420
130,408,136,408
132,420,133,416
132,420,129,424
134,416,125,420
130,412,122,408
128,420,122,416
129,416,124,424
136,420,128,420
141,412,129,408
138,424,127,416
131,412,126,424
122,420,128,408
119,412,131,420
120,416,134,416
123,416,137,416
126,420,137,420
127,420,139,420
126,408,140,408
125,424,140,424
127,416,140,412
130,412,139,420
131,420,137,412
134,416,134,424
136,420,130,416
138,412,126,412
139,416,128,416
140,420,132,420
142,420,130,420
142,408,124,412
142,420,118,416
138,420,117,420
139,420,118,420
142,408,120,412
144,420,125,412
145,420,130,424
143,416,136,420
137,412,140,408
129,420,140,416
119,416,137,416
113,416,137,420
109,420,139,420
104,412,140,412
99,420,139,424
96,424,136,408
91,408,129,420
91,420,121,416
96,416,115,420
96,420,110,420
95,408,105,408
88,420,99,416
86,420,96,424
91,416,96,420
105,412,97,408
117,420,97,416
125,416,96,424
136,420,94,416
142,412,94,412
143,416,92,416
142,420,87,420
139,420,81,420
135,408,83,412
127,420,91,416
128,420,97,420
134,420,105,420
137,408,111,408
138,420,116,416
136,420,122,424
136,416,131,420
131,412,137,408
123,420,139,416
114,416,138,416
106,416,138,420
94,416,140,424
85,416,143,408
77,420,144,420
67,420,140,420
59,408,137,412
56,420,138,416
60,420,142,420
65,416,147,420
74,412,151,412
86,420,155,412
99,420,155,424
109,416,157,420
121,412,155,408
131,420,149,416
140,416,141,424
153,420,134,416
180,412,131,412
207,416,130,416
224,420,134,420
236,420,136,420
239,408,138,412
231,420,137,416
213,420,131,420
188,412,126,412
166,420,124,420
153,416,122,412
151,420,121,424
146,416,119,420
145,412,119,408
152,420,121,416
158,420,124,424
155,420,124,412
152,408,121,416
140,420,115,416
125,416,113,420
115,420,112,420
113,408,112,412
113,420,113,416
115,420,116,420
118,420,119,420
121,408,121,408
126,420,130,416
130,420,136,424
126,416,137,420
114,412,138,408
97,420,136,416
82,416,132,424
71,420,125,416
68,412,117,412
65,416,113,416
68,416,114,416
72,420,119,420
82,420,126,416
103,412,137,416
130,420,148,420
154,412,156,412
172,420,160,420
181,424,161,412
185,412,159,424
189,416,156,420
193,412,155,408
201,420,156,416
203,416,155,424
192,420,150,416
177,420,145,412
168,408,142,416
161,420,141,424
153,420,141,416
143,408,142,412
128,420,139,416
115,420,134,420
110,420,130,420
113,408,129,408
118,420,124,416
119,420,117,424
119,416,119,420
119,412,126,408
113,420,129,416
109,416,132,424
109,420,137,412
114,412,142,416
124,420,145,416
129,412,147,420
129,420,147,416
123,420,144,416
110,412,137,416
92,420,132,428
77,412,128,404
69,420,126,420
69,416,122,412
77,420,120,424
87,416,120,420
96,412,119,408
102,420,120,416
104,416,120,424
106,420,122,416
110,412,124,412
120,416,121,416
127,420,118,420
130,420,117,420
131,408,113,412
127,420,110,416
129,420,111,420
133,420,115,420
137,408,119,412
138,420,120,412
135,420,121,424
130,416,124,420
127,412,128,408
127,416,134,416
131,420,136,424
136,420,135,412
138,412,131,416
135,420,127,416
131,412,124,420
129,420,124,416
128,420,126,420
131,420,129,412
139,412,131,420
143,420,131,420
142,408,132,408
143,420,133,416
146,420,135,424
150,416,137,420
155,412,140,408
160,420,140,416
164,416,137,424
169,420,135,416
172,412,135,412
169,416,134,416
160,420,132,424
153,420,130,416
151,408,128,412
151,420,128,416
153,420,127,420
153,420,126,420
152,408,124,408
150,420,124,416
146,420,121,420
143,412,116,416
143,420,113,420
142,412,110,412
138,420,107,424
134,428,105,412
127,404,104,416
121,420,105,416
116,416,106,420
111,420,108,420
108,408,113,412
108,420,118,416
99,420,121,420
90,420,120,420
90,408,117,412
90,420,112,412
87,420,109,424
94,416,110,420
105,412,112,408
113,420,116,416
118,416,124,424
123,420,134,416
126,412,140,412
126,416,144,416
126,420,144,424
124,420,138,416
118,408,127,412
110,420,114,416
101,420,105,420
99,420,100,420
101,408,97,408
103,420,94,416
103,420,96,420
97,412,98,416
93,420,98,428
97,412,99,404
105,420,105,424
112,420,112,416
116,412,117,412
116,416,117,416
111,420,115,424
103,420,111,416
96,408,110,412
96,420,113,416
98,420,119,420
103,420,123,420
109,408,128,408
114,420,136,416
118,420,146,424
120,416,153,420
124,412,155,408
125,420,153,416
130,416,147,424
140,420,143,416
147,412,142,412
151,416,137,416
152,420,133,424
159,412,134,412
159,420,134,416
156,420,130,416
162,416,129,420
174,420,133,420
179,408,133,408
173,420,129,416
165,420,128,424
161,420,134,412
162,408,136,420
159,420,134,412
152,416,134,424
145,420,133,416
135,412,128,412
122,416,119,416
114,420,103,424
109,420,90,416
107,408,80,412
104,420,71,416
107,420,71,420
111,420,71,420
110,408,73,408
105,420,82,416
99,420,95,424
96,416,108,420
103,412,117,408
107,420,123,416
110,412,132,420
112,420,145,416
112,420,159,416
111,412,172,416
113,420,183,420
114,412,182,416
115,420,177,420
118,424,173,412
121,412,169,420
124,420,164,420
129,408,159,412
136,420,150,412
138,416,141,424
134,420,126,420
126,412,113,408
119,420,108,416
112,416,112,424
108,420,117,416
104,420,120,412
100,408,121,416
97,420,124,424
96,420,126,416
96,408,126,412
94,420,126,416
94,420,127,420
95,420,128,420
95,408,127,408
93,420,124,416
93,420,119,424
100,416,115,412
113,412,115,420
133,420,123,412
162,412,139,420
191,420,158,416
217,420,176,416
235,412,186,416
242,420,187,428
235,412,182,408
227,420,177,420
229,420,172,412
231,416,164,420
225,420,156,420
217,408,155,408
214,420,158,416
210,416,156,424
198,420,151,420
180,412,148,408
163,420,147,416
142,416,146,424
116,420,141,416
99,412,137,412
97,416,135,416
103,420,134,420
104,420,134,420
100,408,134,412
92,420,134,416
90,420,134,420
95,420,132,420
99,416,129,408
102,416,126,416
104,416,124,424
108,416,121,412
113,412,118,420
115,420,113,412
118,412,108,420
124,420,104,416
133,420,105,420
133,420,108,412
127,412,110,420
125,420,113,420
130,408,118,412
135,420,125,416
137,420,131,420
136,420,135,420
131,408,138,408
121,420,140,416
114,420,140,424
113,416,137,420
116,412,132,408
116,420,128,416
112,416,126,424
105,420,124,416
100,412,123,412
96,416,121,416
90,420,120,424
86,420,121,416
81,408,119,412
72,420,118,416
65,420,120,416
65,412,122,420
70,420,123,416
78,412,124,412
90,424,125,424
101,424,124,412
111,404,123,420
124,420,123,412
137,416,123,424
144,420,121,420
143,412,118,408
140,416,114,416
145,420,113,424
156,420,114,416
168,408,114,412
175,420,112,416
182,420,110,420
185,420,110,420
186,408,111,412
186,420,109,412
182,420,105,424
172,416,102,420
160,412,99,408
150,420,99,416
140,416,97,424
124,420,94,416
111,412,93,412
103,416,95,416
103,420,98,424
109,420,102,416
117,408,105,412
121,420,108,416
121,420,109,416
116,412,106,420
112,420,104,424
110,412,108,404
107,424,115,424
107,416,123,420
108,412,128,408
110,420,134,416
118,416,139,424
129,420,138,416
141,412,133,412
148,416,125,416
152,420,120,424
148,420,119,408
138,412,119,420
127,416,115,416
120,420,114,420
115,420,118,420
113,408,123,408
112,420,128,416
110,416,132,424
109,420,137,420
110,420,146,408
113,408,151,416
117,420,151,424
117,416,147,412
116,416,141,420
113,420,139,412
112,416,141,424
110,420,137,424
110,408,135,404
109,420,133,416
110,420,134,420
114,416,140,420
121,412,143,408
126,420,138,416
121,420,124,424
117,416,116,420
119,412,113,408
118,420,114,416
116,416,111,424
109,420,110,420
102,412,117,408
98,416,129,416
98,420,136,424
96,420,133,416
87,408,127,412
84,420,125,416
95,420,127,420
105,420,134,420
116,408,144,412
132,420,152,412
143,416,154,420
146,416,152,420
148,420,144,412
153,412,137,416
158,420,130,424
156,416,129,412
152,416,129,420
155,424,129,412
159,412,129,424
159,420,129,416
157,408,127,412
158,420,126,416
157,420,123,420
151,420,121,420
145,408,123,408
137,420,124,416
129,420,125,424
130,416,130,420
145,412,134,408
157,420,137,416
166,416,136,424
171,420,131,416
174,412,130,412
171,416,129,416
162,420,128,424
149,420,134,408
142,412,141,420
134,416,147,416
128,420,150,420
125,420,148,412
127,408,149,420
131,420,151,412
133,416,148,420
130,416,142,420
126,420,135,412
123,412,126,416
121,420,121,428
124,416,121,408
128,416,123,420
122,420,126,412
112,416,129,420
105,420,132,420
113,408,136,412
132,420,142,416
154,420,145,420
172,420,142,420
184,408,136,412
183,420,135,412
175,420,136,424
167,416,138,420
162,412,141,408
159,420,143,416
159,416,145,424
154,420,147,416
145,412,147,412
131,416,142,416
115,420,139,416
104,412,137,420
94,420,137,420
85,416,137,412
79,420,140,420
76,420,140,412
71,408,136,420
65,420,132,412
60,416,128,420
55,416,122,420
56,420,116,420
60,420,114,408
64,412,112,424
70,420,106,416
78,412,99,412
86,416,92,416
98,420,87,424
114,420,88,416
136,408,95,412
158,420,102,416
171,420,107,420
171,416,108,420
169,412,111,408
168,420,112,416
166,420,112,424
166,416,113,420
164,412,114,408
158,420,115,416
150,416,118,424
146,420,120,420
146,412,119,408
144,416,118,416
146,420,116,416
149,416,115,420
150,416,115,420
150,416,116,412
143,420,119,420
138,424,122,412
135,404,128,420
136,420,132,412
139,420,135,424
135,416,134,420
129,412,129,408
124,420,124,416
118,416,119,424
111,420,116,416
103,412,112,412
96,416,111,416
91,420,110,420
87,420,109,420
83,408,111,412
81,420,117,416
81,420,128,420
81,416,138,420
77,412,140,408
70,420,137,416
70,420,137,424
80,416,141,420
91,412,144,408
98,420,146,416
104,416,147,424
105,420,149,416
100,412,151,412
93,416,148,416
85,420,143,416
80,412,141,420
86,420,141,424
100,416,144,408
126,420,146,420
152,420,147,420
174,408,147,412
188,420,147,412
197,420,147,424
203,416,141,420
209,412,134,408
214,420,134,416
219,416,136,424
222,420,136,416
222,420,134,412
216,408,126,416
205,420,117,424
187,420,110,416
167,408,107,412
150,420,106,416
134,420,106,420
119,416,105,420
111,420,104,408
108,412,103,416
107,420,103,424
103,412,103,412
99,420,103,420
94,416,103,412
100,416,108,424
107,420,110,424
111,412,108,404
114,416,103,416
117,420,103,420
121,420,111,420
125,408,127,412
129,420,138,416
136,420,149,420
148,420,159,420
159,408,166,412
159,420,168,412
153,420,169,424
145,416,171,420
142,412,168,408
135,420,162,416
126,416,152,424
124,420,136,416
126,420,116,412
129,408,98,416
133,420,91,424
137,420,89,416
140,408,92,412
142,420,99,416
139,416,106,416
127,420,113,420
114,416,116,412
106,416,116,416
108,420,117,424
115,412,121,412
124,420,127,420
137,424,138,412
151,408,152,424
159,420,161,416
159,412,166,412
152,416,165,416
137,420,159,420
124,420,151,420
120,408,143,412
122,420,137,416
123,420,138,420
122,420,141,420
120,408,142,408
117,420,140,416
114,420,136,424
115,416,134,420
121,412,132,408
129,420,129,416
136,416,127,424
138,420,126,416
139,412,128,412
139,416,124,416
139,420,118,420
141,420,113,412
142,412,112,420
143,416,114,416
142,416,118,416
140,420,120,420
139,416,123,412
137,416,124,416
130,420,122,428
119,412,120,408
112,420,122,420
112,416,126,412
113,416,132,424
111,420,136,416
104,412,137,412
98,416,135,416
96,420,129,420
98,420,123,420
104,408,120,412
107,420,118,416
112,420,119,420
119,420,120,420
126,408,118,408
126,420,111,416
122,420,105,424
122,416,103,420
127,412,103,408
132,420,103,416
137,416,104,416
137,416,102,420
132,416,98,420
127,416,96,412
128,420,103,424
132,420,112,408
134,412,119,420
139,416,126,416
150,416,134,416
159,420,142,420
165,416,147,420
166,420,148,408
161,416,146,424
153,416,143,420
151,412,142,408
147,420,147,416
141,416,153,424
131,420,160,416
115,412,164,412
100,416,164,416
95,420,161,420
92,420,154,420
86,408,145,412
75,420,139,416
62,420,135,420
49,420,135,420
41,408,133,412
35,420,130,412
28,420,123,424
17,416,114,420
17,412,105,408
27,420,99,416
49,416,97,416
73,416,97,420
92,420,99,420
101,412,100,412
106,420,99,424
112,424,96,408
123,408,95,420
140,420,97,416
161,416,103,420
179,420,109,420
187,408,116,408
194,420,126,416
208,420,135,424
221,416,139,420
225,412,138,408
219,420,138,416
206,416,139,424
191,420,140,416
179,412,140,412
165,416,143,416
151,420,145,420
138,420,147,420
130,408,146,412
122,420,142,416
117,420,138,420
113,420,134,420
105,408,128,408
97,420,119,416
94,420,112,424
98,416,104,420
104,412,96,408
111,420,92,416
124,416,92,416
136,416,96,420
145,416,102,424
154,416,111,408
166,420,119,420
175,420,124,420
177,408,131,412
176,420,134,416
169,420,134,420
158,416,133,420
151,412,134,412
148,420,135,412
147,420,137,424
147,416,139,420
145,412,140,408
141,420,141,416
138,416,144,424
137,420,147,416
136,412,147,412
133,416,145,416
132,420,142,420
135,420,140,420
141,420,139,412
143,408,141,416
141,420,144,420
134,412,145,416
129,420,144,416
123,416,142,412
119,420,142,424
118,416,144,424
119,412,144,404
124,420,143,416
128,416,139,424
126,420,134,416
123,412,127,412
115,416,122,416
106,420,119,424
95,420,114,416
94,408,107,412
94,420,101,416
99,420,101,420
105,420,106,420
111,408,111,408
117,420,114,416
121,420,116,424
123,416,120,420
118,412,121,408
108,420,121,416
100,416,123,424
94,420,126,416
94,412,133,412
103,416,143,416
119,416,155,420
127,420,163,416
128,420,167,416
129,412,166,416
135,420,163,420
144,412,163,412
159,420,168,420
178,424,173,412
193,412,173,424
195,416,168,420
193,412,160,408
189,420,148,416
174,416,139,424
160,420,128,416
146,412,121,412
134,416,118,416
129,420,115,420
126,420,114,420
127,408,112,412
133,420,110,416
140,420,104,420
144,420,96,420
151,408,91,412
155,420,91,412
155,420,92,424
150,416,92,420
146,412,94,408
143,420,95,416
141,416,95,424
137,420,96,412
129,412,96,416
119,420,95,416
114,412,93,420
108,420,88,416
107,420,84,416
108,412,83,416
106,420,87,424
107,412,100,408
110,420,118,420
113,416,129,412
113,420,135,424
106,416,141,420
100,412,146,408
99,420,152,416
101,416,156,424
100,420,152,416
97,412,140,412
89,416,130,416
81,420,122,424
80,420,115,416
78,408,112,412
70,420,112,416
61,420,112,420
50,420,110,420
43,408,110,408
39,420,114,416
44,420,121,420
48,412,132,416
57,420,145,420
67,412,153,412
74,420,159,424
83,420,165,412
93,412,171,416
100,420,172,416
110,412,169,420
121,420,165,416
140,420,162,420
159,416,159,412
172,416,157,420
181,420,155,420
183,416,152,408
179,412,147,416
182,420,140,424
197,416,133,420
211,412,127,408
211,420,121,416
201,416,118,424
191,420,118,416
185,412,118,412
178,416,119,416
168,420,120,420
151,420,117,420
137,408,113,412
128,420,113,416
123,420,113,420
121,420,111,420
116,408,105,408
111,420,98,416
108,420,92,420
105,412,89,416
109,420,90,420
117,412,92,412
125,420,96,424
131,428,103,412
139,404,112,416
147,420,121,416
156,416,127,424
160,420,129,416
157,408,130,412
153,420,131,416
153,420,132,420
153,420,134,420
151,408,135,408
147,420,135,416
144,420,137,424
138,416,142,420
139,412,150,408
144,420,156,416
149,416,161,424
153,420,163,416
156,412,162,412
158,416,158,416
163,420,153,420
163,420,143,420
159,408,135,412
160,420,129,416
160,420,124,420
155,420,121,420
142,408,118,412
124,420,115,412
110,420,113,420
100,412,112,416
97,420,112,424
98,412,115,408
105,420,119,424
106,420,122,416
99,412,124,412
91,416,125,416
84,420,123,424
75,420,117,416
67,408,108,412
61,420,101,416
65,420,99,420
77,420,100,420
94,408,103,408
109,420,106,416
121,420,108,424
124,416,107,420
125,412,104,408
122,420,102,416
116,416,99,424
115,420,97,416
119,420,99,412
123,408,103,416
123,420,104,424
119,412,103,412
118,420,104,420
118,420,108,412
122,416,113,420
125,420,119,428
126,408,126,400
127,420,131,416
132,420,132,424
139,416,135,420
147,412,137,408
152,420,140,416
155,416,143,424
157,420,141,416
153,412,135,412
147,416,124,416
144,420,121,424
144,420,121,416
144,408,125,412
140,420,128,416
132,420,129,420
122,416,135,420
117,412,145,408
116,420,158,416
120,420,167,424
124,416,170,420
126,412,168,408
126,420,167,416
126,412,164,420
126,420,162,416
128,420,161,416
128,412,161,416
133,420,160,420
137,412,159,416
137,420,162,416
133,424,166,416
127,412,171,420
123,420,176,420
123,408,173,412
123,420,160,412
128,420,143,424
133,416,131,420
132,412,126,408
129,420,118,416
125,416,110,424
121,420,105,416
117,412,106,412
113,416,111,416
114,420,119,424
118,420,125,416
119,408,128,412
110,420,129,416
99,420,131,420
88,420,131,420
79,408,133,408
74,420,129,416
76,420,124,424
86,416,119,412
105,412,113,420
121,420,111,412
136,412,114,420
146,420,120,420
150,420,124,412
147,412,124,416
145,420,122,424
147,420,124,408
155,412,129,420
164,416,133,416
177,420,134,420
195,420,132,420
211,408,130,408
219,420,128,416
221,420,129,424
212,416,131,420
194,412,132,408
169,420,129,416
146,416,125,424
131,420,125,416
123,412,125,412
116,416,127,416
114,420,130,420
114,420,132,420
112,408,133,412
109,420,134,416
105,420,134,416
99,412,131,420
97,420,130,416
98,412,130,412
101,424,129,424
107,416,127,412
116,412,125,420
126,420,123,412
134,412,121,420
137,420,122,416
143,420,124,420
150,416,125,412
159,416,126,424
161,420,127,416
156,408,126,412
148,420,125,416
140,420,124,420
131,420,123,420
124,408,124,408
123,420,124,416
124,416,123,424
122,420,120,420
121,412,116,408
119,420,115,416
118,416,114,424
112,420,116,416
101,412,118,412
87,416,118,416
73,420,115,424
67,420,116,416
68,408,119,412
73,420,120,416
75,420,115,416
75,412,112,420
80,420,108,416
86,412,103,412
88,424,99,424
90,424,96,412
97,404,95,420
112,420,96,412
132,416,97,424
153,420,98,420
168,412,101,408
177,416,107,416
184,420,113,424
186,420,115,416
181,408,115,412
172,420,117,416
165,420,125,420
158,416,130,420
150,420,131,408
143,412,134,416
143,420,138,424
142,416,142,420
139,412,145,408
135,420,150,416
133,416,155,424
129,420,154,416
119,412,150,412
108,416,142,416
101,420,138,420
94,420,136,420
89,408,134,412
86,420,132,416
82,420,130,416
78,412,128,420
76,420,126,420
79,420,123,408
88,416,120,424
102,416,119,420
117,412,120,408
131,420,121,416
143,416,121,424
151,420,120,416
155,412,118,412
154,416,115,416
148,420,115,420
142,420,114,420
144,408,113,412
153,420,116,416
158,420,120,420
155,420,126,420
146,408,131,408
135,420,134,416
131,416,133,424
132,420,130,420
138,420,127,408
139,408,120,416
128,420,116,424
117,416,116,412
112,416,118,420
112,420,121,412
108,416,128,420
98,420,135,428
94,408,141,404
91,420,146,416
84,420,152,420
83,416,159,420
87,412,162,408
94,420,158,416
106,420,152,424
123,416,145,420
140,412,139,408
152,420,135,416
159,416,131,424
160,420,130,416
164,412,133,412
169,416,140,416
174,420,144,420
174,420,140,420
169,408,134,412
164,420,127,416
160,420,123,420
155,420,122,420
151,408,122,412
152,420,120,412
154,416,117,420
156,416,115,420
157,420,111,412
158,412,107,416
161,420,101,424
158,416,92,412
150,416,85,416
136,424,82,416
124,412,83,424
113,420,88,416
106,408,93,412
104,420,102,416
109,420,110,420
114,416,114,420
116,412,116,408
115,420,116,416
113,420,116,424
110,416,118,420
105,412,121,408
101,420,122,416
105,416,123,424
110,420,125,420
109,412,131,408
109,416,140,416
111,420,145,420
112,420,147,420
111,408,149,412
110,420,154,416
109,420,157,420
106,420,159,412
105,412,156,420
107,416,153,412
108,416,153,420
105,416,158,420
101,420,162,412
101,412,165,416
107,420,167,424
110,420,166,416
113,412,158,412
119,416,155,416
126,420,152,420
130,420,150,420
136,408,151,412
139,420,149,416
135,420,144,420
132,416,140,420
134,420,136,408
139,412,136,416
148,420,135,424
156,416,134,420
164,412,129,408
163,420,125,416
155,416,126,424
145,420,126,420
141,412,124,408
141,416,125,416
143,420,126,416
148,416,128,420
158,416,128,420
166,416,125,412
170,420,121,420
170,420,118,412
164,408,115,420
155,420,110,412
143,416,105,420
131,420,101,420
122,416,98,420
117,420,95,408
115,412,94,424
112,420,94,420
109,412,95,408
105,416,96,416
102,420,102,424
99,420,110,416
97,408,116,412
93,420,122,416
89,420,126,420
84,416,127,420
80,412,126,408
76,420,124,416
78,420,123,424
84,416,123,420
95,412,127,408
102,420,132,416
104,416,136,424
102,420,140,420
103,412,145,408
102,416,147,416
103,420,146,416
112,412,143,420
130,420,138,420
152,416,134,412
168,420,131,420
174,424,127,412
174,404,124,420
171,420,123,412
168,420,124,424
161,416,123,420
147,412,121,408
131,420,123,416
128,416,132,424
137,420,140,416
147,412,147,412
152,416,151,416
144,420,152,424
131,420,152,416
122,408,150,412
115,420,148,416
110,420,145,420
104,420,141,420
103,408,137,408
104,420,135,416
104,420,138,424
110,416,140,420
118,412,140,408
130,420,142,416
141,416,143,424
147,420,139,416
147,412,131,412
145,416,121,416
145,420,115,416
146,416,111,420
150,416,110,420
158,420,112,412
163,416,114,420
158,420,112,420
146,408,113,408
135,420,118,416
126,420,121,424
119,416,122,420
115,412,121,408
115,420,120,416
119,416,120,424
124,420,120,416
127,412,120,412
127,416,119,416
124,420,117,420
120,420,115,420
115,408,114,412
115,420,115,416
122,420,115,420
130,416,116,420
136,420,117,408
136,412,115,416
136,420,113,424
137,412,114,412
139,420,116,420
139,416,115,412
135,416,110,424
127,420,105,424
116,412,104,404
106,416,106,416
99,420,110,420
93,420,115,420
94,408,121,412
105,420,133,416
118,420,140,420
120,420,141,420
113,408,140,412
108,420,137,412
107,420,135,424
105,416,135,420
105,412,133,408
108,420,129,416
113,416,124,424
118,420,121,416
130,412,123,412
148,416,129,416
161,420,131,420
158,420,127,420
144,408,119,412
130,420,110,416
125,416,106,416
129,420,107,420
138,416,106,412
144,416,106,416
154,420,107,424
159,412,105,412
159,420,103,420
158,424,101,412
155,408,101,424
148,420,105,416
138,412,113,412
128,416,120,416
121,420,127,420
123,420,137,420
131,408,149,412
137,420,153,416
139,420,153,420
138,420,154,420
135,408,153,408
126,420,149,416
116,420,146,424
113,416,145,420
113,412,138,408
115,420,133,416
120,416,137,424
124,420,143,416
128,412,150,412
131,416,151,416
131,420,151,420
133,420,152,412
139,412,152,420
146,416,149,416
154,416,145,416
159,420,142,420
161,416,139,412
157,416,134,416
148,420,129,424
133,416,127,420
124,412,128,408
118,420,131,416
117,416,136,424
118,420,143,416
121,420,150,412
120,408,154,416
119,420,156,420
117,420,155,420
113,408,151,412
103,420,144,416
87,420,139,420
77,420,136,420
71,408,133,408
66,420,132,416
63,420,130,424
60,416,125,420
57,412,122,408
58,420,121,416
68,416,119,416
81,416,114,420
91,416,110,420
97,416,107,412
104,420,103,424
108,420,100,408
118,412,101,420
137,416,106,416
164,416,113,416
186,420,120,420
198,416,124,420
200,420,127,408
200,416,125,424
200,416,124,420
198,412,123,408
195,420,120,416
193,416,115,424
192,420,113,416
186,412,112,412
176,416,108,416
163,420,103,420
150,420,99,420
139,408,102,412
132,420,108,416
131,420,117,420
131,420,124,420
138,408,130,412
152,420,139,412
161,420,144,424
156,416,144,420
146,412,143,408
137,420,143,416
129,416,146,416
120,416,148,420
108,416,145,420
96,416,139,412
84,420,139,424
76,424,140,408
76,408,140,420
81,420,139,416
88,416,136,420
94,420,133,420
93,408,133,412
90,420,132,412
82,420,128,424
68,416,120,420
61,412,116,408
64,420,114,416
77,416,115,424
94,420,120,416
111,412,126,412
120,416,127,416
117,420,122,420
108,420,117,420
103,408,115,412
107,420,112,416
122,420,109,420
145,412,108,412
169,420,110,420
187,416,115,412
197,420,120,424
195,416,121,420
184,412,121,408
170,420,122,416
158,416,125,416
152,416,128,420
150,416,129,420
149,420,129,412
150,416,128,424
150,420,127,416
151,408,130,412
152,420,135,416
154,420,140,420
155,420,145,420
157,408,150,408
157,420,149,416
152,420,145,424
143,416,139,420
132,412,135,408
124,420,132,416
119,416,129,424
118,420,132,416
120,412,135,412
119,416,135,416
118,420,135,420
114,420,135,420
111,420,135,412
105,408,134,416
102,420,133,420
99,412,130,412
98,420,127,420
97,416,121,412
96,420,113,424
94,416,108,424
96,412,107,404
102,420,108,416
110,416,108,424
120,420,110,416
129,412,111,412
134,416,113,416
136,420,112,420
135,420,111,420
134,408,108,412
131,420,108,416
127,420,112,420
121,420,111,420
115,408,109,412
111,420,108,412
114,420,108,424
120,416,111,420
127,412,116,408
131,420,120,416
137,416,126,424
141,420,128,416
139,412,129,412
132,416,127,416
129,416,128,420
129,420,132,416
128,420,136,416
126,412,138,416
129,420,140,420
130,412,145,412
128,420,156,420
120,424,160,412
109,412,158,424
93,416,151,420
79,412,145,408
74,420,143,416
81,416,143,424
99,420,140,416
124,412,137,412
147,416,136,416
161,420,135,424
167,420,134,416
167,408,130,412
161,420,126,416
154,420,123,420
151,420,124,420
153,408,126,408
160,420,129,416
170,420,133,424
179,416,136,420
183,412,135,408
180,420,135,416
178,416,138,424
173,420,141,412
167,412,142,416
155,420,140,416
141,412,137,420
132,420,131,416
125,420,126,416
119,412,120,416
116,420,115,420
115,420,109,420
117,408,103,408
120,420,99,416
123,420,98,424
125,416,99,420
124,412,99,408
123,420,99,416
121,416,102,424
120,420,102,416
117,412,102,412
113,416,104,416
109,420,105,420
105,420,109,420
104,408,117,412
104,420,125,416
106,420,134,420
107,416,139,420
104,412,143,412
100,420,143,412
96,420,143,420
96,412,145,416
97,420,151,420
94,412,151,412
86,420,151,424
79,420,148,412
71,412,140,416
67,420,135,416
67,412,131,420
67,420,126,416
69,420,120,420
73,416,120,412
80,416,123,420
88,420,121,420
96,408,119,408
108,420,115,416
121,420,112,424
130,416,112,420
137,412,114,408
141,420,118,416
144,416,121,424
144,420,129,416
147,412,140,412
151,416,148,416
154,420,150,424
156,420,147,416
153,408,143,412
149,420,141,416
144,420,143,420
139,420,145,420
139,408,144,408
138,420,139,416
140,420,135,420
145,412,134,416
151,420,132,420
147,412,129,412
145,420,127,424
154,424,124,412
164,408,124,416
168,420,125,416
163,416,128,420
158,420,129,420
152,408,126,412
149,420,123,416
145,420,120,420
142,420,119,420
140,416,121,408
138,412,121,416
136,420,122,424
139,416,121,420
147,412,122,408
155,420,126,416
156,416,131,424
152,420,136,416
144,412,139,412
135,416,141,416
126,420,143,420
124,412,143,416
126,420,142,416
128,420,138,416
126,416,133,420
123,420,128,420
124,408,124,408
125,420,122,416
123,420,117,420
120,412,112,416
118,420,108,420
115,420,109,412
114,412,113,424
114,420,115,416
117,412,115,412
122,416,116,416
127,420,117,424
126,420,117,416
120,408,114,412
117,420,112,416
119,420,116,420
125,420,119,420
130,408,118,408
131,420,116,416
132,420,115,424
133,416,115,420
133,412,115,408
129,420,108,416
124,416,100,424
118,420,95,416
113,420,93,412
109,408,96,416
109,420,103,424
112,412,112,412
115,420,120,420
117,420,125,412
120,416,132,420
129,420,144,428
139,408,157,400
147,420,165,416
149,420,165,424
141,416,161,420
128,412,159,408
116,420,161,416
111,416,169,424
111,420,177,416
113,412,179,412
110,416,175,416
108,420,171,424
108,420,166,416
110,408,158,412
114,420,146,416
119,420,133,420
121,416,121,420
119,412,112,408
115,420,106,416
112,420,102,424
106,416,99,420
107,412,100,408
112,420,103,416
122,412,105,420
131,420,107,416
137,420,110,416
141,412,115,416
141,420,120,420
135,412,122,416
128,420,121,416
120,424,117,416
120,412,112,420
128,420,112,420
143,408,114,412
158,420,120,412
167,420,125,424
172,416,128,420
174,412,131,408
175,420,134,416
177,416,137,424
179,420,143,416
185,412,150,412
187,416,151,416
180,420,149,424
170,420,143,416
160,408,138,412
150,420,135,416
140,420,133,420
131,420,131,420
125,408,131,408
124,420,128,416
122,420,126,424
120,416,123,412
121,412,119,420
121,420,115,412
120,412,114,420
118,420,114,416
111,420,114,416
103,412,112,416
94,420,107,424
88,420,106,416
88,408,110,412
95,420,115,416
106,420,124,420
115,420,137,420
118,408,142,408
115,420,139,416
110,420,132,424
105,416,125,420
110,412,123,408
124,420,124,416
137,416,128,424
147,420,130,416
152,412,129,412
147,416,126,416
140,420,121,420
135,420,116,420
135,408,111,412
136,420,106,416
134,420,99,416
128,412,95,420
124,420,95,416
121,412,95,412
121,424,94,424
122,416,91,412
123,412,92,420
122,420,89,412
118,412,86,420
113,420,88,416
108,420,97,420
104,420,107,412
104,412,115,420
120,420,125,420
137,408,133,412
144,420,139,416
145,420,142,420
144,420,143,420
143,408,142,412
142,420,144,412
142,416,147,424
136,420,149,420
126,412,153,408
112,420,155,416
96,416,154,424
92,420,153,416
96,420,148,412
96,408,141,416
89,420,135,424
87,420,124,416
89,408,113,412
90,420,107,416
91,420,105,416
89,412,107,420
89,420,107,416
85,412,103,412
75,424,100,424
65,420,100,412
65,408,103,420
72,420,112,412
88,416,124,424
110,420,139,420
128,412,148,408
137,416,153,416
141,420,159,420
144,420,163,420
148,408,164,412
154,420,164,416
163,420,160,420
171,420,158,420
177,408,159,408
184,420,163,416
193,416,166,424
193,420,166,420
187,412,160,408
182,420,152,416
175,416,143,424
165,416,136,412
155,416,134,420
149,420,133,412
146,416,134,420
146,420,136,420
149,408,138,412
147,420,138,416
143,420,137,416
138,412,134,420
135,420,130,416
134,420,127,412
133,416,126,424
133,416,129,420
134,412,134,408
134,420,138,416
133,416,140,424
132,420,140,420
128,412,141,408
121,416,142,416
114,420,140,424
108,420,135,416
105,408,131,412
103,420,128,416
103,420,129,420
109,420,135,420
114,408,139,408
114,420,138,416
114,416,135,424
118,420,134,420
124,412,131,416
127,416,128,408
130,420,126,424
133,416,123,412
134,416,120,420
133,420,119,412
128,416,119,420
128,420,118,428
131,408,117,404
133,420,119,416
130,420,123,420
124,416,126,420
119,420,128,408
112,412,130,416
104,420,128,424
92,416,124,420
85,412,124,408
84,420,124,416
89,416,123,424
99,420,120,420
112,412,119,408
127,416,115,416
138,420,112,424
142,420,110,416
143,408,110,412
147,420,113,416
155,420,119,420
167,420,124,420
176,408,128,408
186,420,127,416
198,416,125,420
199,416,125,420
194,420,125,412
190,412,127,416
185,420,127,424
181,416,127,412
172,416,127,420
164,424,128,412
158,412,129,424
151,420,129,416
144,408,126,412
138,420,121,416
132,420,115,420
127,416,109,420
118,412,103,408
108,420,100,416
97,420,101,424
86,416,103,420
79,412,105,408
73,420,108,416
66,416,112,424
64,420,119,420
62,412,127,408
51,416,131,416
41,420,135,424
34,420,138,416
37,408,139,412
51,420,141,416
71,420,144,420
89,420,143,412
101,408,141,420
116,420,144,412
136,416,150,420
152,416,155,420
158,428,155,412
156,404,151,416
151,420,145,424
160,420,139,416
176,412,131,412
190,416,125,416
203,420,120,424
213,420,118,416
211,408,116,412
206,420,115,416
193,420,114,420
177,420,114,420
164,408,115,408
154,420,116,416
150,420,116,424
144,416,115,420
140,412,115,408
137,420,116,416
135,416,117,424
131,420,119,416
124,412,118,412
117,416,118,416
113,420,119,416
113,416,122,420
114,416,128,420
115,416,131,412
116,420,133,420
115,420,133,412
115,408,132,420
115,420,133,420
116,416,129,412
121,416,124,420
121,420,117,416
